Created as New Dataset;
cm-1;%T
4000,00;73,53
3998,00;73,52
3996,00;73,50
3994,00;73,49
3992,00;73,48
3990,00;73,46
3988,00;73,44
3986,00;73,43
3984,00;73,41
3982,00;73,40
3980,00;73,38
3978,00;73,36
3976,00;73,35
3974,00;73,33
3972,00;73,32
3970,00;73,30
3968,00;73,28
3966,00;73,26
3964,00;73,25
3962,00;73,23
3960,00;73,22
3958,00;73,20
3956,00;73,18
3954,00;73,16
3952,00;73,14
3950,00;73,12
3948,00;73,10
3946,00;73,09
3944,00;73,08
3942,00;73,07
3940,00;73,05
3938,00;73,03
3936,00;72,99
3934,00;72,95
3932,00;72,90
3930,00;72,85
3928,00;72,80
3926,00;72,76
3924,00;72,73
3922,00;72,71
3920,00;72,69
3918,00;72,66
3916,00;72,63
3914,00;72,60
3912,00;72,57
3910,00;72,54
3908,00;72,52
3906,00;72,49
3904,00;72,47
3902,00;72,44
3900,00;72,41
3898,00;72,38
3896,00;72,35
3894,00;72,32
3892,00;72,29
3890,00;72,26
3888,00;72,23
3886,00;72,21
3884,00;72,18
3882,00;72,16
3880,00;72,14
3878,00;72,12
3876,00;72,10
3874,00;72,09
3872,00;72,07
3870,00;72,06
3868,00;72,04
3866,00;72,03
3864,00;72,02
3862,00;72,01
3860,00;72,00
3858,00;71,99
3856,00;71,98
3854,00;71,97
3852,00;71,96
3850,00;71,95
3848,00;71,94
3846,00;71,93
3844,00;71,93
3842,00;71,92
3840,00;71,91
3838,00;71,90
3836,00;71,89
3834,00;71,88
3832,00;71,88
3830,00;71,87
3828,00;71,86
3826,00;71,86
3824,00;71,85
3822,00;71,85
3820,00;71,84
3818,00;71,83
3816,00;71,82
3814,00;71,81
3812,00;71,80
3810,00;71,79
3808,00;71,77
3806,00;71,76
3804,00;71,74
3802,00;71,73
3800,00;71,72
3798,00;71,70
3796,00;71,69
3794,00;71,67
3792,00;71,66
3790,00;71,64
3788,00;71,63
3786,00;71,61
3784,00;71,59
3782,00;71,57
3780,00;71,55
3778,00;71,53
3776,00;71,50
3774,00;71,48
3772,00;71,45
3770,00;71,43
3768,00;71,41
3766,00;71,40
3764,00;71,38
3762,00;71,36
3760,00;71,35
3758,00;71,34
3756,00;71,32
3754,00;71,31
3752,00;71,29
3750,00;71,28
3748,00;71,26
3746,00;71,24
3744,00;71,21
3742,00;71,19
3740,00;71,17
3738,00;71,15
3736,00;71,14
3734,00;71,12
3732,00;71,11
3730,00;71,10
3728,00;71,09
3726,00;71,08
3724,00;71,08
3722,00;71,08
3720,00;71,07
3718,00;71,07
3716,00;71,06
3714,00;71,06
3712,00;71,05
3710,00;71,04
3708,00;71,04
3706,00;71,03
3704,00;71,02
3702,00;71,01
3700,00;71,00
3698,00;70,99
3696,00;70,98
3694,00;70,97
3692,00;70,95
3690,00;70,94
3688,00;70,92
3686,00;70,91
3684,00;70,89
3682,00;70,87
3680,00;70,85
3678,00;70,83
3676,00;70,82
3674,00;70,80
3672,00;70,78
3670,00;70,76
3668,00;70,75
3666,00;70,74
3664,00;70,72
3662,00;70,71
3660,00;70,70
3658,00;70,69
3656,00;70,68
3654,00;70,66
3652,00;70,65
3650,00;70,63
3648,00;70,62
3646,00;70,60
3644,00;70,58
3642,00;70,56
3640,00;70,54
3638,00;70,52
3636,00;70,50
3634,00;70,49
3632,00;70,47
3630,00;70,46
3628,00;70,44
3626,00;70,43
3624,00;70,42
3622,00;70,40
3620,00;70,39
3618,00;70,38
3616,00;70,36
3614,00;70,35
3612,00;70,33
3610,00;70,32
3608,00;70,30
3606,00;70,29
3604,00;70,28
3602,00;70,26
3600,00;70,25
3598,00;70,24
3596,00;70,23
3594,00;70,22
3592,00;70,21
3590,00;70,20
3588,00;70,19
3586,00;70,18
3584,00;70,17
3582,00;70,16
3580,00;70,14
3578,00;70,13
3576,00;70,11
3574,00;70,10
3572,00;70,09
3570,00;70,07
3568,00;70,06
3566,00;70,05
3564,00;70,04
3562,00;70,02
3560,00;70,01
3558,00;70,00
3556,00;69,99
3554,00;69,98
3552,00;69,97
3550,00;69,95
3548,00;69,94
3546,00;69,93
3544,00;69,92
3542,00;69,90
3540,00;69,89
3538,00;69,88
3536,00;69,87
3534,00;69,86
3532,00;69,85
3530,00;69,83
3528,00;69,82
3526,00;69,81
3524,00;69,80
3522,00;69,79
3520,00;69,78
3518,00;69,77
3516,00;69,76
3514,00;69,74
3512,00;69,73
3510,00;69,72
3508,00;69,71
3506,00;69,70
3504,00;69,69
3502,00;69,68
3500,00;69,67
3498,00;69,66
3496,00;69,66
3494,00;69,65
3492,00;69,64
3490,00;69,63
3488,00;69,62
3486,00;69,61
3484,00;69,61
3482,00;69,60
3480,00;69,59
3478,00;69,58
3476,00;69,57
3474,00;69,56
3472,00;69,55
3470,00;69,54
3468,00;69,53
3466,00;69,51
3464,00;69,50
3462,00;69,48
3460,00;69,46
3458,00;69,45
3456,00;69,43
3454,00;69,40
3452,00;69,38
3450,00;69,36
3448,00;69,33
3446,00;69,30
3444,00;69,28
3442,00;69,25
3440,00;69,22
3438,00;69,19
3436,00;69,16
3434,00;69,13
3432,00;69,11
3430,00;69,08
3428,00;69,05
3426,00;69,02
3424,00;69,00
3422,00;68,97
3420,00;68,95
3418,00;68,92
3416,00;68,90
3414,00;68,87
3412,00;68,85
3410,00;68,83
3408,00;68,81
3406,00;68,79
3404,00;68,76
3402,00;68,74
3400,00;68,72
3398,00;68,70
3396,00;68,68
3394,00;68,66
3392,00;68,64
3390,00;68,62
3388,00;68,60
3386,00;68,58
3384,00;68,56
3382,00;68,54
3380,00;68,52
3378,00;68,50
3376,00;68,48
3374,00;68,46
3372,00;68,45
3370,00;68,43
3368,00;68,41
3366,00;68,39
3364,00;68,38
3362,00;68,36
3360,00;68,34
3358,00;68,32
3356,00;68,30
3354,00;68,28
3352,00;68,27
3350,00;68,25
3348,00;68,23
3346,00;68,21
3344,00;68,19
3342,00;68,17
3340,00;68,16
3338,00;68,14
3336,00;68,12
3334,00;68,10
3332,00;68,09
3330,00;68,07
3328,00;68,05
3326,00;68,03
3324,00;68,01
3322,00;67,99
3320,00;67,98
3318,00;67,96
3316,00;67,94
3314,00;67,92
3312,00;67,90
3310,00;67,89
3308,00;67,87
3306,00;67,85
3304,00;67,83
3302,00;67,82
3300,00;67,80
3298,00;67,78
3296,00;67,76
3294,00;67,74
3292,00;67,72
3290,00;67,70
3288,00;67,68
3286,00;67,66
3284,00;67,64
3282,00;67,62
3280,00;67,60
3278,00;67,58
3276,00;67,56
3274,00;67,54
3272,00;67,52
3270,00;67,50
3268,00;67,49
3266,00;67,47
3264,00;67,45
3262,00;67,43
3260,00;67,41
3258,00;67,39
3256,00;67,37
3254,00;67,35
3252,00;67,33
3250,00;67,31
3248,00;67,29
3246,00;67,27
3244,00;67,25
3242,00;67,24
3240,00;67,22
3238,00;67,20
3236,00;67,18
3234,00;67,16
3232,00;67,14
3230,00;67,13
3228,00;67,11
3226,00;67,09
3224,00;67,07
3222,00;67,05
3220,00;67,03
3218,00;67,01
3216,00;66,99
3214,00;66,97
3212,00;66,95
3210,00;66,94
3208,00;66,92
3206,00;66,90
3204,00;66,88
3202,00;66,86
3200,00;66,84
3198,00;66,82
3196,00;66,80
3194,00;66,78
3192,00;66,76
3190,00;66,74
3188,00;66,72
3186,00;66,70
3184,00;66,68
3182,00;66,66
3180,00;66,65
3178,00;66,63
3176,00;66,61
3174,00;66,59
3172,00;66,57
3170,00;66,55
3168,00;66,53
3166,00;66,51
3164,00;66,48
3162,00;66,46
3160,00;66,44
3158,00;66,42
3156,00;66,40
3154,00;66,38
3152,00;66,36
3150,00;66,35
3148,00;66,33
3146,00;66,31
3144,00;66,29
3142,00;66,27
3140,00;66,26
3138,00;66,24
3136,00;66,22
3134,00;66,21
3132,00;66,19
3130,00;66,17
3128,00;66,16
3126,00;66,14
3124,00;66,13
3122,00;66,11
3120,00;66,10
3118,00;66,09
3116,00;66,08
3114,00;66,06
3112,00;66,05
3110,00;66,04
3108,00;66,03
3106,00;66,02
3104,00;66,01
3102,00;66,00
3100,00;65,99
3098,00;65,98
3096,00;65,96
3094,00;65,95
3092,00;65,94
3090,00;65,93
3088,00;65,92
3086,00;65,91
3084,00;65,89
3082,00;65,88
3080,00;65,87
3078,00;65,85
3076,00;65,84
3074,00;65,83
3072,00;65,81
3070,00;65,80
3068,00;65,78
3066,00;65,77
3064,00;65,75
3062,00;65,74
3060,00;65,73
3058,00;65,72
3056,00;65,72
3054,00;65,72
3052,00;65,72
3050,00;65,72
3048,00;65,72
3046,00;65,73
3044,00;65,74
3042,00;65,75
3040,00;65,76
3038,00;65,77
3036,00;65,78
3034,00;65,79
3032,00;65,80
3030,00;65,81
3028,00;65,82
3026,00;65,82
3024,00;65,82
3022,00;65,81
3020,00;65,80
3018,00;65,79
3016,00;65,78
3014,00;65,76
3012,00;65,74
3010,00;65,71
3008,00;65,69
3006,00;65,66
3004,00;65,63
3002,00;65,60
3000,00;65,57
2998,00;65,53
2996,00;65,51
2994,00;65,48
2992,00;65,45
2990,00;65,43
2988,00;65,41
2986,00;65,38
2984,00;65,37
2982,00;65,35
2980,00;65,33
2978,00;65,31
2976,00;65,29
2974,00;65,28
2972,00;65,25
2970,00;65,23
2968,00;65,21
2966,00;65,18
2964,00;65,16
2962,00;65,13
2960,00;65,10
2958,00;65,07
2956,00;65,04
2954,00;65,00
2952,00;64,97
2950,00;64,94
2948,00;64,90
2946,00;64,87
2944,00;64,83
2942,00;64,80
2940,00;64,76
2938,00;64,72
2936,00;64,68
2934,00;64,64
2932,00;64,59
2930,00;64,55
2928,00;64,50
2926,00;64,45
2924,00;64,40
2922,00;64,35
2920,00;64,30
2918,00;64,26
2916,00;64,21
2914,00;64,16
2912,00;64,11
2910,00;64,07
2908,00;64,02
2906,00;63,98
2904,00;63,94
2902,00;63,90
2900,00;63,86
2898,00;63,82
2896,00;63,79
2894,00;63,76
2892,00;63,73
2890,00;63,70
2888,00;63,67
2886,00;63,65
2884,00;63,62
2882,00;63,60
2880,00;63,57
2878,00;63,55
2876,00;63,53
2874,00;63,51
2872,00;63,48
2870,00;63,46
2868,00;63,44
2866,00;63,41
2864,00;63,39
2862,00;63,36
2860,00;63,34
2858,00;63,31
2856,00;63,29
2854,00;63,26
2852,00;63,24
2850,00;63,21
2848,00;63,18
2846,00;63,16
2844,00;63,13
2842,00;63,11
2840,00;63,08
2838,00;63,06
2836,00;63,03
2834,00;63,01
2832,00;62,98
2830,00;62,96
2828,00;62,93
2826,00;62,91
2824,00;62,88
2822,00;62,86
2820,00;62,84
2818,00;62,82
2816,00;62,79
2814,00;62,77
2812,00;62,75
2810,00;62,73
2808,00;62,70
2806,00;62,68
2804,00;62,66
2802,00;62,64
2800,00;62,62
2798,00;62,60
2796,00;62,57
2794,00;62,55
2792,00;62,53
2790,00;62,50
2788,00;62,48
2786,00;62,46
2784,00;62,43
2782,00;62,41
2780,00;62,39
2778,00;62,36
2776,00;62,34
2774,00;62,32
2772,00;62,29
2770,00;62,27
2768,00;62,25
2766,00;62,22
2764,00;62,20
2762,00;62,18
2760,00;62,15
2758,00;62,13
2756,00;62,11
2754,00;62,09
2752,00;62,07
2750,00;62,04
2748,00;62,02
2746,00;62,00
2744,00;61,97
2742,00;61,95
2740,00;61,93
2738,00;61,91
2736,00;61,88
2734,00;61,86
2732,00;61,84
2730,00;61,82
2728,00;61,79
2726,00;61,77
2724,00;61,75
2722,00;61,72
2720,00;61,70
2718,00;61,67
2716,00;61,65
2714,00;61,63
2712,00;61,60
2710,00;61,58
2708,00;61,55
2706,00;61,53
2704,00;61,50
2702,00;61,48
2700,00;61,45
2698,00;61,43
2696,00;61,40
2694,00;61,38
2692,00;61,35
2690,00;61,33
2688,00;61,31
2686,00;61,28
2684,00;61,26
2682,00;61,24
2680,00;61,21
2678,00;61,19
2676,00;61,16
2674,00;61,14
2672,00;61,12
2670,00;61,10
2668,00;61,07
2666,00;61,05
2664,00;61,03
2662,00;61,00
2660,00;60,98
2658,00;60,96
2656,00;60,94
2654,00;60,91
2652,00;60,89
2650,00;60,87
2648,00;60,84
2646,00;60,82
2644,00;60,80
2642,00;60,77
2640,00;60,75
2638,00;60,73
2636,00;60,70
2634,00;60,68
2632,00;60,66
2630,00;60,63
2628,00;60,61
2626,00;60,59
2624,00;60,56
2622,00;60,54
2620,00;60,51
2618,00;60,49
2616,00;60,47
2614,00;60,44
2612,00;60,42
2610,00;60,40
2608,00;60,38
2606,00;60,35
2604,00;60,33
2602,00;60,31
2600,00;60,29
2598,00;60,27
2596,00;60,25
2594,00;60,22
2592,00;60,20
2590,00;60,18
2588,00;60,16
2586,00;60,13
2584,00;60,11
2582,00;60,09
2580,00;60,06
2578,00;60,04
2576,00;60,02
2574,00;59,99
2572,00;59,97
2570,00;59,94
2568,00;59,92
2566,00;59,89
2564,00;59,87
2562,00;59,84
2560,00;59,82
2558,00;59,79
2556,00;59,76
2554,00;59,74
2552,00;59,71
2550,00;59,68
2548,00;59,65
2546,00;59,62
2544,00;59,60
2542,00;59,57
2540,00;59,54
2538,00;59,51
2536,00;59,49
2534,00;59,46
2532,00;59,43
2530,00;59,41
2528,00;59,38
2526,00;59,35
2524,00;59,32
2522,00;59,30
2520,00;59,27
2518,00;59,24
2516,00;59,22
2514,00;59,19
2512,00;59,16
2510,00;59,14
2508,00;59,11
2506,00;59,08
2504,00;59,05
2502,00;59,03
2500,00;59,00
2498,00;58,97
2496,00;58,95
2494,00;58,92
2492,00;58,89
2490,00;58,86
2488,00;58,84
2486,00;58,81
2484,00;58,78
2482,00;58,75
2480,00;58,73
2478,00;58,70
2476,00;58,68
2474,00;58,65
2472,00;58,62
2470,00;58,60
2468,00;58,57
2466,00;58,54
2464,00;58,52
2462,00;58,49
2460,00;58,46
2458,00;58,44
2456,00;58,41
2454,00;58,38
2452,00;58,35
2450,00;58,32
2448,00;58,30
2446,00;58,27
2444,00;58,24
2442,00;58,21
2440,00;58,18
2438,00;58,16
2436,00;58,13
2434,00;58,10
2432,00;58,07
2430,00;58,04
2428,00;58,01
2426,00;57,98
2424,00;57,95
2422,00;57,92
2420,00;57,89
2418,00;57,87
2416,00;57,84
2414,00;57,82
2412,00;57,80
2410,00;57,78
2408,00;57,77
2406,00;57,75
2404,00;57,73
2402,00;57,71
2400,00;57,69
2398,00;57,67
2396,00;57,64
2394,00;57,62
2392,00;57,59
2390,00;57,56
2388,00;57,54
2386,00;57,51
2384,00;57,49
2382,00;57,46
2380,00;57,44
2378,00;57,42
2376,00;57,41
2374,00;57,39
2372,00;57,38
2370,00;57,36
2368,00;57,35
2366,00;57,33
2364,00;57,31
2362,00;57,28
2360,00;57,26
2358,00;57,23
2356,00;57,20
2354,00;57,17
2352,00;57,14
2350,00;57,12
2348,00;57,10
2346,00;57,08
2344,00;57,07
2342,00;57,06
2340,00;57,05
2338,00;57,04
2336,00;57,02
2334,00;57,00
2332,00;56,98
2330,00;56,95
2328,00;56,92
2326,00;56,89
2324,00;56,85
2322,00;56,81
2320,00;56,76
2318,00;56,72
2316,00;56,67
2314,00;56,63
2312,00;56,58
2310,00;56,54
2308,00;56,50
2306,00;56,46
2304,00;56,42
2302,00;56,38
2300,00;56,35
2298,00;56,32
2296,00;56,30
2294,00;56,28
2292,00;56,26
2290,00;56,24
2288,00;56,22
2286,00;56,21
2284,00;56,19
2282,00;56,18
2280,00;56,17
2278,00;56,16
2276,00;56,15
2274,00;56,15
2272,00;56,14
2270,00;56,13
2268,00;56,12
2266,00;56,11
2264,00;56,10
2262,00;56,09
2260,00;56,08
2258,00;56,07
2256,00;56,06
2254,00;56,05
2252,00;56,04
2250,00;56,03
2248,00;56,02
2246,00;56,01
2244,00;56,01
2242,00;56,00
2240,00;55,99
2238,00;55,98
2236,00;55,97
2234,00;55,96
2232,00;55,95
2230,00;55,94
2228,00;55,93
2226,00;55,92
2224,00;55,91
2222,00;55,90
2220,00;55,89
2218,00;55,88
2216,00;55,87
2214,00;55,87
2212,00;55,86
2210,00;55,86
2208,00;55,85
2206,00;55,85
2204,00;55,85
2202,00;55,84
2200,00;55,84
2198,00;55,84
2196,00;55,84
2194,00;55,85
2192,00;55,85
2190,00;55,85
2188,00;55,86
2186,00;55,87
2184,00;55,88
2182,00;55,89
2180,00;55,90
2178,00;55,90
2176,00;55,91
2174,00;55,91
2172,00;55,90
2170,00;55,89
2168,00;55,87
2166,00;55,84
2164,00;55,80
2162,00;55,75
2160,00;55,69
2158,00;55,63
2156,00;55,55
2154,00;55,46
2152,00;55,37
2150,00;55,28
2148,00;55,17
2146,00;55,07
2144,00;54,97
2142,00;54,87
2140,00;54,77
2138,00;54,67
2136,00;54,57
2134,00;54,49
2132,00;54,40
2130,00;54,33
2128,00;54,26
2126,00;54,19
2124,00;54,13
2122,00;54,07
2120,00;54,02
2118,00;53,98
2116,00;53,93
2114,00;53,89
2112,00;53,85
2110,00;53,81
2108,00;53,78
2106,00;53,74
2104,00;53,71
2102,00;53,67
2100,00;53,64
2098,00;53,61
2096,00;53,58
2094,00;53,55
2092,00;53,52
2090,00;53,49
2088,00;53,47
2086,00;53,45
2084,00;53,42
2082,00;53,40
2080,00;53,38
2078,00;53,37
2076,00;53,35
2074,00;53,34
2072,00;53,33
2070,00;53,32
2068,00;53,31
2066,00;53,31
2064,00;53,31
2062,00;53,31
2060,00;53,32
2058,00;53,33
2056,00;53,35
2054,00;53,37
2052,00;53,39
2050,00;53,41
2048,00;53,43
2046,00;53,46
2044,00;53,48
2042,00;53,50
2040,00;53,51
2038,00;53,53
2036,00;53,53
2034,00;53,53
2032,00;53,53
2030,00;53,52
2028,00;53,51
2026,00;53,48
2024,00;53,46
2022,00;53,42
2020,00;53,38
2018,00;53,34
2016,00;53,29
2014,00;53,23
2012,00;53,18
2010,00;53,12
2008,00;53,06
2006,00;53,00
2004,00;52,95
2002,00;52,90
2000,00;52,85
1998,00;52,80
1996,00;52,76
1994,00;52,72
1992,00;52,69
1990,00;52,66
1988,00;52,63
1986,00;52,60
1984,00;52,56
1982,00;52,53
1980,00;52,49
1978,00;52,44
1976,00;52,39
1974,00;52,33
1972,00;52,26
1970,00;52,19
1968,00;52,11
1966,00;52,03
1964,00;51,95
1962,00;51,86
1960,00;51,77
1958,00;51,67
1956,00;51,58
1954,00;51,49
1952,00;51,40
1950,00;51,31
1948,00;51,22
1946,00;51,13
1944,00;51,05
1942,00;50,96
1940,00;50,89
1938,00;50,81
1936,00;50,74
1934,00;50,67
1932,00;50,60
1930,00;50,54
1928,00;50,48
1926,00;50,42
1924,00;50,36
1922,00;50,30
1920,00;50,24
1918,00;50,19
1916,00;50,13
1914,00;50,08
1912,00;50,03
1910,00;49,97
1908,00;49,92
1906,00;49,87
1904,00;49,83
1902,00;49,78
1900,00;49,74
1898,00;49,69
1896,00;49,65
1894,00;49,60
1892,00;49,56
1890,00;49,52
1888,00;49,47
1886,00;49,43
1884,00;49,38
1882,00;49,34
1880,00;49,29
1878,00;49,24
1876,00;49,19
1874,00;49,15
1872,00;49,10
1870,00;49,06
1868,00;49,01
1866,00;48,97
1864,00;48,93
1862,00;48,89
1860,00;48,85
1858,00;48,81
1856,00;48,78
1854,00;48,74
1852,00;48,70
1850,00;48,67
1848,00;48,63
1846,00;48,60
1844,00;48,56
1842,00;48,52
1840,00;48,49
1838,00;48,45
1836,00;48,41
1834,00;48,38
1832,00;48,35
1830,00;48,31
1828,00;48,28
1826,00;48,25
1824,00;48,22
1822,00;48,19
1820,00;48,16
1818,00;48,14
1816,00;48,12
1814,00;48,10
1812,00;48,08
1810,00;48,07
1808,00;48,06
1806,00;48,05
1804,00;48,05
1802,00;48,05
1800,00;48,05
1798,00;48,06
1796,00;48,07
1794,00;48,09
1792,00;48,12
1790,00;48,16
1788,00;48,20
1786,00;48,26
1784,00;48,32
1782,00;48,40
1780,00;48,50
1778,00;48,60
1776,00;48,72
1774,00;48,86
1772,00;49,01
1770,00;49,17
1768,00;49,34
1766,00;49,52
1764,00;49,71
1762,00;49,91
1760,00;50,10
1758,00;50,30
1756,00;50,48
1754,00;50,66
1752,00;50,82
1750,00;50,96
1748,00;51,08
1746,00;51,17
1744,00;51,22
1742,00;51,24
1740,00;51,22
1738,00;51,17
1736,00;51,08
1734,00;50,95
1732,00;50,79
1730,00;50,61
1728,00;50,39
1726,00;50,16
1724,00;49,91
1722,00;49,64
1720,00;49,37
1718,00;49,08
1716,00;48,79
1714,00;48,50
1712,00;48,22
1710,00;47,93
1708,00;47,66
1706,00;47,39
1704,00;47,14
1702,00;46,90
1700,00;46,67
1698,00;46,47
1696,00;46,27
1694,00;46,10
1692,00;45,94
1690,00;45,80
1688,00;45,68
1686,00;45,56
1684,00;45,46
1682,00;45,37
1680,00;45,29
1678,00;45,22
1676,00;45,15
1674,00;45,09
1672,00;45,04
1670,00;44,99
1668,00;44,94
1666,00;44,90
1664,00;44,86
1662,00;44,82
1660,00;44,78
1658,00;44,74
1656,00;44,70
1654,00;44,66
1652,00;44,62
1650,00;44,58
1648,00;44,53
1646,00;44,49
1644,00;44,44
1642,00;44,40
1640,00;44,36
1638,00;44,31
1636,00;44,27
1634,00;44,23
1632,00;44,19
1630,00;44,15
1628,00;44,11
1626,00;44,07
1624,00;44,03
1622,00;43,99
1620,00;43,95
1618,00;43,91
1616,00;43,87
1614,00;43,83
1612,00;43,78
1610,00;43,74
1608,00;43,69
1606,00;43,65
1604,00;43,60
1602,00;43,55
1600,00;43,50
1598,00;43,46
1596,00;43,41
1594,00;43,36
1592,00;43,32
1590,00;43,28
1588,00;43,23
1586,00;43,19
1584,00;43,15
1582,00;43,11
1580,00;43,07
1578,00;43,04
1576,00;43,00
1574,00;42,96
1572,00;42,93
1570,00;42,89
1568,00;42,85
1566,00;42,81
1564,00;42,77
1562,00;42,73
1560,00;42,69
1558,00;42,64
1556,00;42,60
1554,00;42,56
1552,00;42,51
1550,00;42,47
1548,00;42,42
1546,00;42,38
1544,00;42,33
1542,00;42,28
1540,00;42,24
1538,00;42,19
1536,00;42,15
1534,00;42,10
1532,00;42,06
1530,00;42,01
1528,00;41,97
1526,00;41,92
1524,00;41,88
1522,00;41,83
1520,00;41,79
1518,00;41,75
1516,00;41,70
1514,00;41,66
1512,00;41,62
1510,00;41,58
1508,00;41,54
1506,00;41,50
1504,00;41,46
1502,00;41,43
1500,00;41,39
1498,00;41,36
1496,00;41,32
1494,00;41,29
1492,00;41,25
1490,00;41,22
1488,00;41,19
1486,00;41,16
1484,00;41,14
1482,00;41,11
1480,00;41,09
1478,00;41,07
1476,00;41,05
1474,00;41,03
1472,00;41,01
1470,00;40,99
1468,00;40,97
1466,00;40,96
1464,00;40,94
1462,00;40,92
1460,00;40,90
1458,00;40,89
1456,00;40,87
1454,00;40,84
1452,00;40,82
1450,00;40,80
1448,00;40,77
1446,00;40,74
1444,00;40,71
1442,00;40,68
1440,00;40,64
1438,00;40,61
1436,00;40,56
1434,00;40,52
1432,00;40,47
1430,00;40,42
1428,00;40,37
1426,00;40,32
1424,00;40,26
1422,00;40,21
1420,00;40,15
1418,00;40,09
1416,00;40,04
1414,00;39,99
1412,00;39,95
1410,00;39,91
1408,00;39,88
1406,00;39,86
1404,00;39,86
1402,00;39,86
1400,00;39,88
1398,00;39,91
1396,00;39,95
1394,00;40,00
1392,00;40,06
1390,00;40,14
1388,00;40,21
1386,00;40,30
1384,00;40,38
1382,00;40,46
1380,00;40,53
1378,00;40,59
1376,00;40,64
1374,00;40,67
1372,00;40,69
1370,00;40,68
1368,00;40,66
1366,00;40,61
1364,00;40,54
1362,00;40,45
1360,00;40,35
1358,00;40,22
1356,00;40,08
1354,00;39,93
1352,00;39,77
1350,00;39,60
1348,00;39,43
1346,00;39,25
1344,00;39,07
1342,00;38,90
1340,00;38,73
1338,00;38,56
1336,00;38,41
1334,00;38,25
1332,00;38,11
1330,00;37,98
1328,00;37,85
1326,00;37,74
1324,00;37,63
1322,00;37,54
1320,00;37,45
1318,00;37,36
1316,00;37,29
1314,00;37,22
1312,00;37,15
1310,00;37,09
1308,00;37,03
1306,00;36,97
1304,00;36,92
1302,00;36,86
1300,00;36,81
1298,00;36,75
1296,00;36,70
1294,00;36,65
1292,00;36,60
1290,00;36,55
1288,00;36,50
1286,00;36,45
1284,00;36,40
1282,00;36,35
1280,00;36,31
1278,00;36,26
1276,00;36,21
1274,00;36,17
1272,00;36,12
1270,00;36,08
1268,00;36,04
1266,00;36,00
1264,00;35,97
1262,00;35,94
1260,00;35,92
1258,00;35,91
1256,00;35,91
1254,00;35,92
1252,00;35,94
1250,00;35,98
1248,00;36,02
1246,00;36,08
1244,00;36,14
1242,00;36,22
1240,00;36,30
1238,00;36,39
1236,00;36,48
1234,00;36,56
1232,00;36,65
1230,00;36,73
1228,00;36,79
1226,00;36,84
1224,00;36,88
1222,00;36,90
1220,00;36,90
1218,00;36,88
1216,00;36,83
1214,00;36,76
1212,00;36,68
1210,00;36,57
1208,00;36,44
1206,00;36,30
1204,00;36,15
1202,00;35,99
1200,00;35,81
1198,00;35,64
1196,00;35,46
1194,00;35,28
1192,00;35,11
1190,00;34,94
1188,00;34,78
1186,00;34,62
1184,00;34,48
1182,00;34,34
1180,00;34,21
1178,00;34,10
1176,00;33,99
1174,00;33,89
1172,00;33,80
1170,00;33,72
1168,00;33,64
1166,00;33,57
1164,00;33,51
1162,00;33,45
1160,00;33,39
1158,00;33,33
1156,00;33,28
1154,00;33,22
1152,00;33,17
1150,00;33,12
1148,00;33,06
1146,00;33,01
1144,00;32,96
1142,00;32,90
1140,00;32,85
1138,00;32,79
1136,00;32,73
1134,00;32,68
1132,00;32,62
1130,00;32,57
1128,00;32,51
1126,00;32,46
1124,00;32,40
1122,00;32,35
1120,00;32,29
1118,00;32,23
1116,00;32,18
1114,00;32,12
1112,00;32,06
1110,00;32,00
1108,00;31,94
1106,00;31,88
1104,00;31,82
1102,00;31,76
1100,00;31,70
1098,00;31,65
1096,00;31,59
1094,00;31,53
1092,00;31,47
1090,00;31,41
1088,00;31,35
1086,00;31,28
1084,00;31,22
1082,00;31,16
1080,00;31,10
1078,00;31,04
1076,00;30,98
1074,00;30,92
1072,00;30,86
1070,00;30,81
1068,00;30,75
1066,00;30,69
1064,00;30,63
1062,00;30,58
1060,00;30,52
1058,00;30,46
1056,00;30,40
1054,00;30,34
1052,00;30,29
1050,00;30,23
1048,00;30,16
1046,00;30,10
1044,00;30,04
1042,00;29,98
1040,00;29,92
1038,00;29,86
1036,00;29,81
1034,00;29,75
1032,00;29,69
1030,00;29,63
1028,00;29,58
1026,00;29,52
1024,00;29,47
1022,00;29,41
1020,00;29,35
1018,00;29,30
1016,00;29,24
1014,00;29,18
1012,00;29,13
1010,00;29,07
1008,00;29,01
1006,00;28,96
1004,00;28,90
1002,00;28,85
1000,00;28,79
998,00;28,74
996,00;28,68
994,00;28,63
992,00;28,57
990,00;28,52
988,00;28,47
986,00;28,41
984,00;28,36
982,00;28,30
980,00;28,25
978,00;28,19
976,00;28,14
974,00;28,09
972,00;28,03
970,00;27,98
968,00;27,93
966,00;27,88
964,00;27,83
962,00;27,78
960,00;27,72
958,00;27,67
956,00;27,62
954,00;27,57
952,00;27,52
950,00;27,47
948,00;27,42
946,00;27,37
944,00;27,32
942,00;27,27
940,00;27,22
938,00;27,17
936,00;27,12
934,00;27,08
932,00;27,04
930,00;26,99
928,00;26,95
926,00;26,90
924,00;26,86
922,00;26,82
920,00;26,77
918,00;26,72
916,00;26,68
914,00;26,63
912,00;26,58
910,00;26,54
908,00;26,49
906,00;26,44
904,00;26,39
902,00;26,34
900,00;26,29
898,00;26,24
896,00;26,18
894,00;26,13
892,00;26,07
890,00;26,01
888,00;25,95
886,00;25,89
884,00;25,83
882,00;25,77
880,00;25,71
878,00;25,65
876,00;25,59
874,00;25,53
872,00;25,47
870,00;25,41
868,00;25,35
866,00;25,30
864,00;25,24
862,00;25,19
860,00;25,14
858,00;25,09
856,00;25,04
854,00;24,99
852,00;24,94
850,00;24,89
848,00;24,84
846,00;24,80
844,00;24,75
842,00;24,70
840,00;24,66
838,00;24,61
836,00;24,57
834,00;24,52
832,00;24,47
830,00;24,43
828,00;24,38
826,00;24,33
824,00;24,28
822,00;24,23
820,00;24,17
818,00;24,12
816,00;24,07
814,00;24,02
812,00;23,97
810,00;23,93
808,00;23,88
806,00;23,84
804,00;23,79
802,00;23,75
800,00;23,71
798,00;23,67
796,00;23,63
794,00;23,59
792,00;23,55
790,00;23,50
788,00;23,46
786,00;23,42
784,00;23,38
782,00;23,34
780,00;23,30
778,00;23,26
776,00;23,22
774,00;23,18
772,00;23,14
770,00;23,11
768,00;23,07
766,00;23,03
764,00;23,00
762,00;22,96
760,00;22,92
758,00;22,89
756,00;22,85
754,00;22,82
752,00;22,78
750,00;22,74
748,00;22,71
746,00;22,67
744,00;22,64
742,00;22,60
740,00;22,56
738,00;22,52
736,00;22,48
734,00;22,44
732,00;22,39
730,00;22,34
728,00;22,30
726,00;22,24
724,00;22,19
722,00;22,14
720,00;22,08
718,00;22,03
716,00;21,98
714,00;21,92
712,00;21,87
710,00;21,82
708,00;21,76
706,00;21,71
704,00;21,66
702,00;21,61
700,00;21,56
698,00;21,50
696,00;21,45
694,00;21,39
692,00;21,34
690,00;21,28
688,00;21,22
686,00;21,16
684,00;21,11
682,00;21,05
680,00;20,99
678,00;20,94
676,00;20,88
674,00;20,83
672,00;20,78
670,00;20,73
668,00;20,68
666,00;20,62
664,00;20,57
662,00;20,52
660,00;20,48
658,00;20,43
656,00;20,38
654,00;20,33
652,00;20,29
650,00;20,25
648,00;20,21
646,00;20,17
644,00;20,13
642,00;20,09
640,00;20,06
638,00;20,02
636,00;19,98
634,00;19,93
632,00;19,88
630,00;19,82
628,00;19,76
626,00;19,69
624,00;19,62
622,00;19,55
620,00;19,47
618,00;19,40
616,00;19,32
614,00;19,25
612,00;19,19
610,00;19,12
608,00;19,06
606,00;18,99
604,00;18,93
602,00;18,86
600,00;18,80
