Created as New Dataset;
cm-1;%T
4000,00;72,17
3998,00;72,15
3996,00;72,13
3994,00;72,12
3992,00;72,10
3990,00;72,09
3988,00;72,07
3986,00;72,05
3984,00;72,04
3982,00;72,02
3980,00;72,00
3978,00;71,98
3976,00;71,97
3974,00;71,95
3972,00;71,93
3970,00;71,92
3968,00;71,91
3966,00;71,89
3964,00;71,87
3962,00;71,85
3960,00;71,83
3958,00;71,81
3956,00;71,79
3954,00;71,78
3952,00;71,78
3950,00;71,78
3948,00;71,76
3946,00;71,73
3944,00;71,67
3942,00;71,59
3940,00;71,51
3938,00;71,43
3936,00;71,37
3934,00;71,33
3932,00;71,32
3930,00;71,32
3928,00;71,32
3926,00;71,31
3924,00;71,29
3922,00;71,26
3920,00;71,23
3918,00;71,20
3916,00;71,18
3914,00;71,16
3912,00;71,14
3910,00;71,12
3908,00;71,10
3906,00;71,08
3904,00;71,05
3902,00;71,02
3900,00;71,00
3898,00;70,98
3896,00;70,97
3894,00;70,95
3892,00;70,93
3890,00;70,92
3888,00;70,90
3886,00;70,89
3884,00;70,87
3882,00;70,86
3880,00;70,85
3878,00;70,84
3876,00;70,83
3874,00;70,82
3872,00;70,81
3870,00;70,80
3868,00;70,79
3866,00;70,78
3864,00;70,77
3862,00;70,76
3860,00;70,75
3858,00;70,74
3856,00;70,74
3854,00;70,73
3852,00;70,72
3850,00;70,71
3848,00;70,70
3846,00;70,69
3844,00;70,68
3842,00;70,67
3840,00;70,66
3838,00;70,65
3836,00;70,64
3834,00;70,63
3832,00;70,62
3830,00;70,60
3828,00;70,59
3826,00;70,58
3824,00;70,56
3822,00;70,55
3820,00;70,53
3818,00;70,52
3816,00;70,50
3814,00;70,48
3812,00;70,47
3810,00;70,45
3808,00;70,43
3806,00;70,41
3804,00;70,39
3802,00;70,37
3800,00;70,34
3798,00;70,32
3796,00;70,30
3794,00;70,27
3792,00;70,25
3790,00;70,22
3788,00;70,19
3786,00;70,17
3784,00;70,14
3782,00;70,11
3780,00;70,08
3778,00;70,06
3776,00;70,03
3774,00;70,01
3772,00;69,99
3770,00;69,97
3768,00;69,95
3766,00;69,93
3764,00;69,91
3762,00;69,89
3760,00;69,87
3758,00;69,85
3756,00;69,83
3754,00;69,81
3752,00;69,79
3750,00;69,77
3748,00;69,76
3746,00;69,74
3744,00;69,72
3742,00;69,71
3740,00;69,70
3738,00;69,69
3736,00;69,68
3734,00;69,67
3732,00;69,66
3730,00;69,66
3728,00;69,65
3726,00;69,65
3724,00;69,64
3722,00;69,64
3720,00;69,63
3718,00;69,63
3716,00;69,62
3714,00;69,62
3712,00;69,62
3710,00;69,62
3708,00;69,61
3706,00;69,61
3704,00;69,61
3702,00;69,60
3700,00;69,59
3698,00;69,58
3696,00;69,57
3694,00;69,55
3692,00;69,54
3690,00;69,51
3688,00;69,49
3686,00;69,46
3684,00;69,44
3682,00;69,41
3680,00;69,38
3678,00;69,35
3676,00;69,32
3674,00;69,29
3672,00;69,26
3670,00;69,23
3668,00;69,20
3666,00;69,18
3664,00;69,15
3662,00;69,13
3660,00;69,10
3658,00;69,08
3656,00;69,05
3654,00;69,03
3652,00;69,00
3650,00;68,97
3648,00;68,94
3646,00;68,91
3644,00;68,89
3642,00;68,86
3640,00;68,83
3638,00;68,81
3636,00;68,78
3634,00;68,76
3632,00;68,74
3630,00;68,72
3628,00;68,70
3626,00;68,68
3624,00;68,67
3622,00;68,65
3620,00;68,63
3618,00;68,62
3616,00;68,60
3614,00;68,58
3612,00;68,57
3610,00;68,55
3608,00;68,53
3606,00;68,52
3604,00;68,50
3602,00;68,49
3600,00;68,47
3598,00;68,46
3596,00;68,45
3594,00;68,43
3592,00;68,42
3590,00;68,41
3588,00;68,40
3586,00;68,40
3584,00;68,39
3582,00;68,38
3580,00;68,37
3578,00;68,36
3576,00;68,35
3574,00;68,34
3572,00;68,33
3570,00;68,31
3568,00;68,30
3566,00;68,29
3564,00;68,28
3562,00;68,27
3560,00;68,26
3558,00;68,25
3556,00;68,24
3554,00;68,23
3552,00;68,23
3550,00;68,22
3548,00;68,21
3546,00;68,20
3544,00;68,19
3542,00;68,18
3540,00;68,17
3538,00;68,16
3536,00;68,15
3534,00;68,14
3532,00;68,13
3530,00;68,13
3528,00;68,12
3526,00;68,11
3524,00;68,10
3522,00;68,09
3520,00;68,08
3518,00;68,08
3516,00;68,07
3514,00;68,06
3512,00;68,05
3510,00;68,04
3508,00;68,03
3506,00;68,02
3504,00;68,01
3502,00;68,00
3500,00;67,99
3498,00;67,98
3496,00;67,97
3494,00;67,96
3492,00;67,95
3490,00;67,94
3488,00;67,93
3486,00;67,92
3484,00;67,91
3482,00;67,90
3480,00;67,89
3478,00;67,88
3476,00;67,88
3474,00;67,87
3472,00;67,86
3470,00;67,85
3468,00;67,83
3466,00;67,82
3464,00;67,81
3462,00;67,80
3460,00;67,78
3458,00;67,76
3456,00;67,74
3454,00;67,72
3452,00;67,70
3450,00;67,68
3448,00;67,65
3446,00;67,63
3444,00;67,60
3442,00;67,57
3440,00;67,55
3438,00;67,52
3436,00;67,49
3434,00;67,46
3432,00;67,44
3430,00;67,41
3428,00;67,38
3426,00;67,36
3424,00;67,33
3422,00;67,31
3420,00;67,28
3418,00;67,26
3416,00;67,23
3414,00;67,21
3412,00;67,19
3410,00;67,17
3408,00;67,14
3406,00;67,12
3404,00;67,10
3402,00;67,08
3400,00;67,06
3398,00;67,04
3396,00;67,02
3394,00;67,00
3392,00;66,98
3390,00;66,96
3388,00;66,94
3386,00;66,92
3384,00;66,90
3382,00;66,88
3380,00;66,86
3378,00;66,84
3376,00;66,82
3374,00;66,80
3372,00;66,78
3370,00;66,76
3368,00;66,74
3366,00;66,73
3364,00;66,71
3362,00;66,69
3360,00;66,67
3358,00;66,65
3356,00;66,63
3354,00;66,61
3352,00;66,59
3350,00;66,57
3348,00;66,55
3346,00;66,53
3344,00;66,51
3342,00;66,49
3340,00;66,47
3338,00;66,45
3336,00;66,43
3334,00;66,41
3332,00;66,39
3330,00;66,37
3328,00;66,36
3326,00;66,34
3324,00;66,32
3322,00;66,30
3320,00;66,28
3318,00;66,26
3316,00;66,24
3314,00;66,22
3312,00;66,20
3310,00;66,18
3308,00;66,16
3306,00;66,14
3304,00;66,13
3302,00;66,11
3300,00;66,09
3298,00;66,07
3296,00;66,05
3294,00;66,02
3292,00;66,00
3290,00;65,98
3288,00;65,96
3286,00;65,94
3284,00;65,92
3282,00;65,89
3280,00;65,87
3278,00;65,85
3276,00;65,83
3274,00;65,81
3272,00;65,79
3270,00;65,77
3268,00;65,75
3266,00;65,73
3264,00;65,71
3262,00;65,69
3260,00;65,66
3258,00;65,64
3256,00;65,62
3254,00;65,60
3252,00;65,58
3250,00;65,56
3248,00;65,54
3246,00;65,52
3244,00;65,50
3242,00;65,48
3240,00;65,46
3238,00;65,44
3236,00;65,42
3234,00;65,40
3232,00;65,38
3230,00;65,36
3228,00;65,34
3226,00;65,32
3224,00;65,30
3222,00;65,27
3220,00;65,25
3218,00;65,23
3216,00;65,21
3214,00;65,19
3212,00;65,17
3210,00;65,15
3208,00;65,13
3206,00;65,11
3204,00;65,09
3202,00;65,07
3200,00;65,05
3198,00;65,03
3196,00;65,01
3194,00;64,99
3192,00;64,97
3190,00;64,95
3188,00;64,93
3186,00;64,91
3184,00;64,89
3182,00;64,87
3180,00;64,85
3178,00;64,83
3176,00;64,81
3174,00;64,79
3172,00;64,77
3170,00;64,75
3168,00;64,73
3166,00;64,71
3164,00;64,69
3162,00;64,66
3160,00;64,64
3158,00;64,62
3156,00;64,59
3154,00;64,57
3152,00;64,55
3150,00;64,53
3148,00;64,51
3146,00;64,49
3144,00;64,47
3142,00;64,45
3140,00;64,43
3138,00;64,41
3136,00;64,39
3134,00;64,37
3132,00;64,36
3130,00;64,34
3128,00;64,32
3126,00;64,31
3124,00;64,29
3122,00;64,28
3120,00;64,26
3118,00;64,25
3116,00;64,24
3114,00;64,22
3112,00;64,21
3110,00;64,20
3108,00;64,19
3106,00;64,18
3104,00;64,16
3102,00;64,15
3100,00;64,14
3098,00;64,13
3096,00;64,11
3094,00;64,10
3092,00;64,09
3090,00;64,07
3088,00;64,06
3086,00;64,05
3084,00;64,03
3082,00;64,02
3080,00;64,01
3078,00;63,99
3076,00;63,97
3074,00;63,96
3072,00;63,94
3070,00;63,92
3068,00;63,91
3066,00;63,89
3064,00;63,88
3062,00;63,86
3060,00;63,85
3058,00;63,84
3056,00;63,83
3054,00;63,83
3052,00;63,82
3050,00;63,83
3048,00;63,83
3046,00;63,83
3044,00;63,84
3042,00;63,85
3040,00;63,85
3038,00;63,86
3036,00;63,87
3034,00;63,88
3032,00;63,88
3030,00;63,89
3028,00;63,89
3026,00;63,89
3024,00;63,89
3022,00;63,88
3020,00;63,87
3018,00;63,86
3016,00;63,84
3014,00;63,82
3012,00;63,80
3010,00;63,78
3008,00;63,75
3006,00;63,72
3004,00;63,69
3002,00;63,66
3000,00;63,63
2998,00;63,60
2996,00;63,57
2994,00;63,54
2992,00;63,52
2990,00;63,49
2988,00;63,47
2986,00;63,45
2984,00;63,43
2982,00;63,41
2980,00;63,39
2978,00;63,37
2976,00;63,35
2974,00;63,33
2972,00;63,31
2970,00;63,29
2968,00;63,26
2966,00;63,24
2964,00;63,21
2962,00;63,18
2960,00;63,15
2958,00;63,12
2956,00;63,09
2954,00;63,06
2952,00;63,03
2950,00;63,00
2948,00;62,96
2946,00;62,93
2944,00;62,90
2942,00;62,86
2940,00;62,82
2938,00;62,78
2936,00;62,74
2934,00;62,70
2932,00;62,66
2930,00;62,62
2928,00;62,57
2926,00;62,52
2924,00;62,47
2922,00;62,43
2920,00;62,38
2918,00;62,33
2916,00;62,28
2914,00;62,23
2912,00;62,19
2910,00;62,15
2908,00;62,10
2906,00;62,06
2904,00;62,02
2902,00;61,98
2900,00;61,95
2898,00;61,92
2896,00;61,88
2894,00;61,85
2892,00;61,83
2890,00;61,80
2888,00;61,77
2886,00;61,75
2884,00;61,72
2882,00;61,70
2880,00;61,68
2878,00;61,65
2876,00;61,63
2874,00;61,61
2872,00;61,58
2870,00;61,56
2868,00;61,53
2866,00;61,51
2864,00;61,48
2862,00;61,46
2860,00;61,43
2858,00;61,40
2856,00;61,37
2854,00;61,35
2852,00;61,32
2850,00;61,29
2848,00;61,26
2846,00;61,24
2844,00;61,21
2842,00;61,18
2840,00;61,16
2838,00;61,13
2836,00;61,10
2834,00;61,08
2832,00;61,05
2830,00;61,03
2828,00;61,00
2826,00;60,98
2824,00;60,95
2822,00;60,93
2820,00;60,91
2818,00;60,88
2816,00;60,86
2814,00;60,83
2812,00;60,81
2810,00;60,79
2808,00;60,76
2806,00;60,74
2804,00;60,72
2802,00;60,69
2800,00;60,67
2798,00;60,64
2796,00;60,62
2794,00;60,60
2792,00;60,57
2790,00;60,55
2788,00;60,52
2786,00;60,50
2784,00;60,47
2782,00;60,45
2780,00;60,42
2778,00;60,40
2776,00;60,37
2774,00;60,35
2772,00;60,32
2770,00;60,30
2768,00;60,27
2766,00;60,25
2764,00;60,22
2762,00;60,20
2760,00;60,18
2758,00;60,15
2756,00;60,13
2754,00;60,10
2752,00;60,08
2750,00;60,05
2748,00;60,03
2746,00;60,00
2744,00;59,98
2742,00;59,95
2740,00;59,93
2738,00;59,90
2736,00;59,88
2734,00;59,85
2732,00;59,83
2730,00;59,80
2728,00;59,78
2726,00;59,76
2724,00;59,73
2722,00;59,71
2720,00;59,68
2718,00;59,66
2716,00;59,63
2714,00;59,61
2712,00;59,58
2710,00;59,56
2708,00;59,53
2706,00;59,50
2704,00;59,48
2702,00;59,45
2700,00;59,43
2698,00;59,40
2696,00;59,38
2694,00;59,35
2692,00;59,33
2690,00;59,30
2688,00;59,27
2686,00;59,25
2684,00;59,22
2682,00;59,20
2680,00;59,17
2678,00;59,14
2676,00;59,12
2674,00;59,09
2672,00;59,07
2670,00;59,04
2668,00;59,02
2666,00;58,99
2664,00;58,97
2662,00;58,94
2660,00;58,92
2658,00;58,89
2656,00;58,87
2654,00;58,84
2652,00;58,82
2650,00;58,79
2648,00;58,77
2646,00;58,74
2644,00;58,72
2642,00;58,69
2640,00;58,67
2638,00;58,64
2636,00;58,62
2634,00;58,59
2632,00;58,57
2630,00;58,55
2628,00;58,52
2626,00;58,50
2624,00;58,47
2622,00;58,45
2620,00;58,42
2618,00;58,40
2616,00;58,37
2614,00;58,35
2612,00;58,32
2610,00;58,30
2608,00;58,28
2606,00;58,25
2604,00;58,23
2602,00;58,21
2600,00;58,19
2598,00;58,16
2596,00;58,14
2594,00;58,12
2592,00;58,10
2590,00;58,08
2588,00;58,05
2586,00;58,03
2584,00;58,01
2582,00;57,99
2580,00;57,96
2578,00;57,94
2576,00;57,91
2574,00;57,89
2572,00;57,87
2570,00;57,84
2568,00;57,82
2566,00;57,79
2564,00;57,76
2562,00;57,74
2560,00;57,71
2558,00;57,68
2556,00;57,66
2554,00;57,63
2552,00;57,60
2550,00;57,57
2548,00;57,54
2546,00;57,52
2544,00;57,49
2542,00;57,46
2540,00;57,43
2538,00;57,41
2536,00;57,38
2534,00;57,36
2532,00;57,33
2530,00;57,30
2528,00;57,27
2526,00;57,25
2524,00;57,22
2522,00;57,19
2520,00;57,16
2518,00;57,13
2516,00;57,10
2514,00;57,08
2512,00;57,05
2510,00;57,02
2508,00;56,99
2506,00;56,96
2504,00;56,93
2502,00;56,91
2500,00;56,88
2498,00;56,85
2496,00;56,83
2494,00;56,80
2492,00;56,77
2490,00;56,75
2488,00;56,72
2486,00;56,69
2484,00;56,67
2482,00;56,64
2480,00;56,61
2478,00;56,58
2476,00;56,56
2474,00;56,53
2472,00;56,50
2470,00;56,48
2468,00;56,45
2466,00;56,42
2464,00;56,39
2462,00;56,37
2460,00;56,34
2458,00;56,31
2456,00;56,28
2454,00;56,26
2452,00;56,23
2450,00;56,20
2448,00;56,17
2446,00;56,15
2444,00;56,12
2442,00;56,09
2440,00;56,06
2438,00;56,03
2436,00;56,01
2434,00;55,98
2432,00;55,95
2430,00;55,92
2428,00;55,89
2426,00;55,86
2424,00;55,83
2422,00;55,81
2420,00;55,78
2418,00;55,76
2416,00;55,74
2414,00;55,72
2412,00;55,70
2410,00;55,68
2408,00;55,65
2406,00;55,63
2404,00;55,61
2402,00;55,59
2400,00;55,57
2398,00;55,54
2396,00;55,52
2394,00;55,50
2392,00;55,47
2390,00;55,45
2388,00;55,42
2386,00;55,39
2384,00;55,37
2382,00;55,34
2380,00;55,32
2378,00;55,30
2376,00;55,28
2374,00;55,26
2372,00;55,24
2370,00;55,23
2368,00;55,21
2366,00;55,19
2364,00;55,16
2362,00;55,14
2360,00;55,11
2358,00;55,08
2356,00;55,05
2354,00;55,03
2352,00;55,01
2350,00;54,99
2348,00;54,98
2346,00;54,97
2344,00;54,96
2342,00;54,95
2340,00;54,94
2338,00;54,92
2336,00;54,90
2334,00;54,87
2332,00;54,83
2330,00;54,79
2328,00;54,75
2326,00;54,69
2324,00;54,64
2322,00;54,59
2320,00;54,53
2318,00;54,47
2316,00;54,42
2314,00;54,37
2312,00;54,32
2310,00;54,28
2308,00;54,24
2306,00;54,20
2304,00;54,17
2302,00;54,14
2300,00;54,12
2298,00;54,09
2296,00;54,07
2294,00;54,05
2292,00;54,04
2290,00;54,02
2288,00;54,01
2286,00;54,00
2284,00;53,99
2282,00;53,98
2280,00;53,97
2278,00;53,97
2276,00;53,96
2274,00;53,96
2272,00;53,95
2270,00;53,94
2268,00;53,94
2266,00;53,93
2264,00;53,92
2262,00;53,91
2260,00;53,90
2258,00;53,89
2256,00;53,88
2254,00;53,87
2252,00;53,86
2250,00;53,85
2248,00;53,84
2246,00;53,83
2244,00;53,82
2242,00;53,81
2240,00;53,81
2238,00;53,80
2236,00;53,78
2234,00;53,77
2232,00;53,76
2230,00;53,75
2228,00;53,73
2226,00;53,72
2224,00;53,71
2222,00;53,69
2220,00;53,68
2218,00;53,67
2216,00;53,66
2214,00;53,66
2212,00;53,65
2210,00;53,64
2208,00;53,64
2206,00;53,63
2204,00;53,63
2202,00;53,63
2200,00;53,62
2198,00;53,62
2196,00;53,62
2194,00;53,62
2192,00;53,62
2190,00;53,63
2188,00;53,63
2186,00;53,64
2184,00;53,65
2182,00;53,66
2180,00;53,67
2178,00;53,67
2176,00;53,68
2174,00;53,68
2172,00;53,68
2170,00;53,67
2168,00;53,65
2166,00;53,63
2164,00;53,59
2162,00;53,54
2160,00;53,48
2158,00;53,41
2156,00;53,33
2154,00;53,24
2152,00;53,15
2150,00;53,05
2148,00;52,94
2146,00;52,83
2144,00;52,72
2142,00;52,62
2140,00;52,51
2138,00;52,41
2136,00;52,31
2134,00;52,22
2132,00;52,13
2130,00;52,05
2128,00;51,98
2126,00;51,91
2124,00;51,84
2122,00;51,79
2120,00;51,73
2118,00;51,68
2116,00;51,64
2114,00;51,60
2112,00;51,55
2110,00;51,52
2108,00;51,48
2106,00;51,44
2104,00;51,41
2102,00;51,37
2100,00;51,34
2098,00;51,30
2096,00;51,27
2094,00;51,24
2092,00;51,21
2090,00;51,19
2088,00;51,16
2086,00;51,14
2084,00;51,12
2082,00;51,10
2080,00;51,08
2078,00;51,07
2076,00;51,06
2074,00;51,04
2072,00;51,04
2070,00;51,03
2068,00;51,03
2066,00;51,03
2064,00;51,03
2062,00;51,04
2060,00;51,05
2058,00;51,06
2056,00;51,08
2054,00;51,11
2052,00;51,13
2050,00;51,16
2048,00;51,18
2046,00;51,21
2044,00;51,24
2042,00;51,26
2040,00;51,28
2038,00;51,30
2036,00;51,32
2034,00;51,32
2032,00;51,32
2030,00;51,32
2028,00;51,30
2026,00;51,28
2024,00;51,25
2022,00;51,22
2020,00;51,18
2018,00;51,14
2016,00;51,09
2014,00;51,03
2012,00;50,98
2010,00;50,92
2008,00;50,86
2006,00;50,81
2004,00;50,76
2002,00;50,71
2000,00;50,66
1998,00;50,61
1996,00;50,57
1994,00;50,54
1992,00;50,50
1990,00;50,47
1988,00;50,44
1986,00;50,40
1984,00;50,37
1982,00;50,33
1980,00;50,28
1978,00;50,23
1976,00;50,17
1974,00;50,11
1972,00;50,04
1970,00;49,96
1968,00;49,88
1966,00;49,79
1964,00;49,70
1962,00;49,61
1960,00;49,52
1958,00;49,43
1956,00;49,33
1954,00;49,24
1952,00;49,15
1950,00;49,06
1948,00;48,97
1946,00;48,88
1944,00;48,80
1942,00;48,71
1940,00;48,63
1938,00;48,56
1936,00;48,48
1934,00;48,41
1932,00;48,34
1930,00;48,28
1928,00;48,21
1926,00;48,15
1924,00;48,09
1922,00;48,03
1920,00;47,97
1918,00;47,91
1916,00;47,85
1914,00;47,80
1912,00;47,74
1910,00;47,68
1908,00;47,63
1906,00;47,58
1904,00;47,53
1902,00;47,48
1900,00;47,43
1898,00;47,39
1896,00;47,34
1894,00;47,30
1892,00;47,25
1890,00;47,21
1888,00;47,16
1886,00;47,12
1884,00;47,07
1882,00;47,02
1880,00;46,98
1878,00;46,93
1876,00;46,88
1874,00;46,84
1872,00;46,79
1870,00;46,74
1868,00;46,70
1866,00;46,66
1864,00;46,61
1862,00;46,57
1860,00;46,53
1858,00;46,49
1856,00;46,45
1854,00;46,42
1852,00;46,38
1850,00;46,34
1848,00;46,30
1846,00;46,26
1844,00;46,23
1842,00;46,19
1840,00;46,15
1838,00;46,11
1836,00;46,08
1834,00;46,04
1832,00;46,00
1830,00;45,97
1828,00;45,93
1826,00;45,90
1824,00;45,87
1822,00;45,84
1820,00;45,81
1818,00;45,78
1816,00;45,76
1814,00;45,73
1812,00;45,71
1810,00;45,69
1808,00;45,68
1806,00;45,67
1804,00;45,66
1802,00;45,65
1800,00;45,65
1798,00;45,65
1796,00;45,65
1794,00;45,66
1792,00;45,68
1790,00;45,71
1788,00;45,74
1786,00;45,78
1784,00;45,84
1782,00;45,90
1780,00;45,98
1778,00;46,07
1776,00;46,17
1774,00;46,29
1772,00;46,41
1770,00;46,55
1768,00;46,70
1766,00;46,85
1764,00;47,01
1762,00;47,18
1760,00;47,34
1758,00;47,51
1756,00;47,67
1754,00;47,82
1752,00;47,95
1750,00;48,07
1748,00;48,17
1746,00;48,24
1744,00;48,28
1742,00;48,29
1740,00;48,27
1738,00;48,22
1736,00;48,13
1734,00;48,01
1732,00;47,87
1730,00;47,69
1728,00;47,50
1726,00;47,29
1724,00;47,06
1722,00;46,81
1720,00;46,56
1718,00;46,30
1716,00;46,04
1714,00;45,78
1712,00;45,52
1710,00;45,26
1708,00;45,01
1706,00;44,77
1704,00;44,54
1702,00;44,32
1700,00;44,11
1698,00;43,92
1696,00;43,75
1694,00;43,59
1692,00;43,45
1690,00;43,32
1688,00;43,20
1686,00;43,09
1684,00;43,00
1682,00;42,91
1680,00;42,83
1678,00;42,76
1676,00;42,70
1674,00;42,64
1672,00;42,58
1670,00;42,53
1668,00;42,48
1666,00;42,44
1664,00;42,40
1662,00;42,35
1660,00;42,31
1658,00;42,27
1656,00;42,23
1654,00;42,19
1652,00;42,15
1650,00;42,11
1648,00;42,06
1646,00;42,02
1644,00;41,97
1642,00;41,93
1640,00;41,88
1638,00;41,84
1636,00;41,80
1634,00;41,76
1632,00;41,72
1630,00;41,68
1628,00;41,64
1626,00;41,60
1624,00;41,56
1622,00;41,52
1620,00;41,48
1618,00;41,44
1616,00;41,40
1614,00;41,35
1612,00;41,31
1610,00;41,26
1608,00;41,22
1606,00;41,17
1604,00;41,13
1602,00;41,08
1600,00;41,03
1598,00;40,99
1596,00;40,94
1594,00;40,90
1592,00;40,85
1590,00;40,81
1588,00;40,77
1586,00;40,73
1584,00;40,69
1582,00;40,65
1580,00;40,61
1578,00;40,57
1576,00;40,54
1574,00;40,50
1572,00;40,46
1570,00;40,42
1568,00;40,39
1566,00;40,35
1564,00;40,31
1562,00;40,27
1560,00;40,22
1558,00;40,18
1556,00;40,14
1554,00;40,10
1552,00;40,05
1550,00;40,01
1548,00;39,96
1546,00;39,92
1544,00;39,88
1542,00;39,83
1540,00;39,79
1538,00;39,74
1536,00;39,70
1534,00;39,65
1532,00;39,61
1530,00;39,56
1528,00;39,52
1526,00;39,48
1524,00;39,43
1522,00;39,39
1520,00;39,35
1518,00;39,31
1516,00;39,27
1514,00;39,23
1512,00;39,19
1510,00;39,15
1508,00;39,11
1506,00;39,08
1504,00;39,04
1502,00;39,00
1500,00;38,96
1498,00;38,93
1496,00;38,89
1494,00;38,86
1492,00;38,82
1490,00;38,79
1488,00;38,76
1486,00;38,73
1484,00;38,70
1482,00;38,67
1480,00;38,65
1478,00;38,62
1476,00;38,60
1474,00;38,58
1472,00;38,56
1470,00;38,54
1468,00;38,52
1466,00;38,50
1464,00;38,48
1462,00;38,45
1460,00;38,43
1458,00;38,41
1456,00;38,39
1454,00;38,36
1452,00;38,34
1450,00;38,31
1448,00;38,28
1446,00;38,25
1444,00;38,22
1442,00;38,18
1440,00;38,15
1438,00;38,11
1436,00;38,07
1434,00;38,03
1432,00;37,98
1430,00;37,93
1428,00;37,88
1426,00;37,83
1424,00;37,78
1422,00;37,72
1420,00;37,67
1418,00;37,62
1416,00;37,57
1414,00;37,52
1412,00;37,48
1410,00;37,44
1408,00;37,41
1406,00;37,39
1404,00;37,37
1402,00;37,37
1400,00;37,38
1398,00;37,40
1396,00;37,43
1394,00;37,47
1392,00;37,52
1390,00;37,58
1388,00;37,64
1386,00;37,71
1384,00;37,78
1382,00;37,84
1380,00;37,90
1378,00;37,94
1376,00;37,98
1374,00;38,00
1372,00;38,01
1370,00;38,00
1368,00;37,97
1366,00;37,93
1364,00;37,86
1362,00;37,78
1360,00;37,68
1358,00;37,56
1356,00;37,43
1354,00;37,30
1352,00;37,15
1350,00;36,99
1348,00;36,84
1346,00;36,68
1344,00;36,52
1342,00;36,36
1340,00;36,20
1338,00;36,05
1336,00;35,91
1334,00;35,77
1332,00;35,64
1330,00;35,51
1328,00;35,40
1326,00;35,29
1324,00;35,19
1322,00;35,10
1320,00;35,01
1318,00;34,94
1316,00;34,86
1314,00;34,79
1312,00;34,73
1310,00;34,67
1308,00;34,61
1306,00;34,55
1304,00;34,49
1302,00;34,44
1300,00;34,38
1298,00;34,33
1296,00;34,28
1294,00;34,22
1292,00;34,17
1290,00;34,12
1288,00;34,07
1286,00;34,02
1284,00;33,97
1282,00;33,92
1280,00;33,87
1278,00;33,82
1276,00;33,77
1274,00;33,72
1272,00;33,67
1270,00;33,63
1268,00;33,58
1266,00;33,54
1264,00;33,50
1262,00;33,47
1260,00;33,45
1258,00;33,43
1256,00;33,43
1254,00;33,43
1252,00;33,44
1250,00;33,47
1248,00;33,50
1246,00;33,55
1244,00;33,60
1242,00;33,66
1240,00;33,73
1238,00;33,80
1236,00;33,87
1234,00;33,95
1232,00;34,02
1230,00;34,08
1228,00;34,13
1226,00;34,18
1224,00;34,21
1222,00;34,22
1220,00;34,22
1218,00;34,19
1216,00;34,15
1214,00;34,09
1212,00;34,01
1210,00;33,91
1208,00;33,80
1206,00;33,67
1204,00;33,54
1202,00;33,39
1200,00;33,24
1198,00;33,08
1196,00;32,92
1194,00;32,77
1192,00;32,61
1190,00;32,46
1188,00;32,32
1186,00;32,18
1184,00;32,05
1182,00;31,93
1180,00;31,82
1178,00;31,71
1176,00;31,61
1174,00;31,53
1172,00;31,44
1170,00;31,37
1168,00;31,30
1166,00;31,23
1164,00;31,17
1162,00;31,12
1160,00;31,06
1158,00;31,01
1156,00;30,96
1154,00;30,91
1152,00;30,86
1150,00;30,81
1148,00;30,76
1146,00;30,71
1144,00;30,66
1142,00;30,61
1140,00;30,56
1138,00;30,51
1136,00;30,45
1134,00;30,40
1132,00;30,35
1130,00;30,30
1128,00;30,24
1126,00;30,19
1124,00;30,14
1122,00;30,08
1120,00;30,03
1118,00;29,98
1116,00;29,92
1114,00;29,87
1112,00;29,81
1110,00;29,76
1108,00;29,70
1106,00;29,64
1104,00;29,59
1102,00;29,53
1100,00;29,47
1098,00;29,41
1096,00;29,36
1094,00;29,30
1092,00;29,24
1090,00;29,18
1088,00;29,12
1086,00;29,06
1084,00;29,00
1082,00;28,94
1080,00;28,88
1078,00;28,82
1076,00;28,76
1074,00;28,70
1072,00;28,64
1070,00;28,59
1068,00;28,53
1066,00;28,47
1064,00;28,42
1062,00;28,36
1060,00;28,31
1058,00;28,25
1056,00;28,19
1054,00;28,14
1052,00;28,08
1050,00;28,02
1048,00;27,96
1046,00;27,90
1044,00;27,84
1042,00;27,78
1040,00;27,73
1038,00;27,67
1036,00;27,61
1034,00;27,55
1032,00;27,50
1030,00;27,44
1028,00;27,39
1026,00;27,33
1024,00;27,28
1022,00;27,23
1020,00;27,17
1018,00;27,12
1016,00;27,06
1014,00;27,01
1012,00;26,95
1010,00;26,90
1008,00;26,85
1006,00;26,79
1004,00;26,74
1002,00;26,69
1000,00;26,64
998,00;26,59
996,00;26,53
994,00;26,48
992,00;26,43
990,00;26,38
988,00;26,33
986,00;26,28
984,00;26,23
982,00;26,18
980,00;26,12
978,00;26,07
976,00;26,02
974,00;25,97
972,00;25,92
970,00;25,87
968,00;25,83
966,00;25,78
964,00;25,73
962,00;25,68
960,00;25,64
958,00;25,59
956,00;25,54
954,00;25,50
952,00;25,45
950,00;25,40
948,00;25,35
946,00;25,31
944,00;25,26
942,00;25,21
940,00;25,17
938,00;25,12
936,00;25,08
934,00;25,03
932,00;24,99
930,00;24,94
928,00;24,90
926,00;24,85
924,00;24,81
922,00;24,76
920,00;24,72
918,00;24,67
916,00;24,62
914,00;24,57
912,00;24,53
910,00;24,48
908,00;24,43
906,00;24,38
904,00;24,33
902,00;24,28
900,00;24,23
898,00;24,18
896,00;24,13
894,00;24,08
892,00;24,03
890,00;23,98
888,00;23,93
886,00;23,87
884,00;23,82
882,00;23,76
880,00;23,71
878,00;23,65
876,00;23,60
874,00;23,55
872,00;23,49
870,00;23,44
868,00;23,39
866,00;23,34
864,00;23,30
862,00;23,25
860,00;23,20
858,00;23,16
856,00;23,11
854,00;23,07
852,00;23,03
850,00;22,98
848,00;22,94
846,00;22,90
844,00;22,86
842,00;22,81
840,00;22,77
838,00;22,73
836,00;22,69
834,00;22,64
832,00;22,60
830,00;22,55
828,00;22,50
826,00;22,45
824,00;22,40
822,00;22,35
820,00;22,30
818,00;22,25
816,00;22,21
814,00;22,16
812,00;22,11
810,00;22,07
808,00;22,02
806,00;21,98
804,00;21,94
802,00;21,90
800,00;21,86
798,00;21,82
796,00;21,79
794,00;21,75
792,00;21,71
790,00;21,67
788,00;21,63
786,00;21,59
784,00;21,55
782,00;21,52
780,00;21,48
778,00;21,44
776,00;21,41
774,00;21,38
772,00;21,34
770,00;21,31
768,00;21,28
766,00;21,25
764,00;21,22
762,00;21,19
760,00;21,16
758,00;21,13
756,00;21,10
754,00;21,07
752,00;21,04
750,00;21,01
748,00;20,98
746,00;20,94
744,00;20,91
742,00;20,88
740,00;20,84
738,00;20,81
736,00;20,77
734,00;20,73
732,00;20,70
730,00;20,66
728,00;20,61
726,00;20,57
724,00;20,53
722,00;20,48
720,00;20,43
718,00;20,39
716,00;20,34
714,00;20,30
712,00;20,25
710,00;20,20
708,00;20,16
706,00;20,11
704,00;20,06
702,00;20,02
700,00;19,97
698,00;19,92
696,00;19,87
694,00;19,82
692,00;19,77
690,00;19,72
688,00;19,67
686,00;19,62
684,00;19,57
682,00;19,52
680,00;19,47
678,00;19,42
676,00;19,37
674,00;19,32
672,00;19,28
670,00;19,24
668,00;19,19
666,00;19,15
664,00;19,11
662,00;19,07
660,00;19,03
658,00;18,99
656,00;18,96
654,00;18,92
652,00;18,89
650,00;18,87
648,00;18,84
646,00;18,82
644,00;18,80
642,00;18,78
640,00;18,77
638,00;18,75
636,00;18,73
634,00;18,70
632,00;18,68
630,00;18,64
628,00;18,61
626,00;18,57
624,00;18,52
622,00;18,48
620,00;18,43
618,00;18,39
616,00;18,34
614,00;18,30
612,00;18,27
610,00;18,23
608,00;18,20
606,00;18,17
604,00;18,13
602,00;18,10
600,00;18,07
