Created as New Dataset;
cm-1;%T
4000,00;96,66
3998,00;96,67
3996,00;96,68
3994,00;96,68
3992,00;96,68
3990,00;96,68
3988,00;96,68
3986,00;96,69
3984,00;96,70
3982,00;96,73
3980,00;96,75
3978,00;96,76
3976,00;96,74
3974,00;96,70
3972,00;96,64
3970,00;96,58
3968,00;96,53
3966,00;96,50
3964,00;96,49
3962,00;96,50
3960,00;96,51
3958,00;96,51
3956,00;96,51
3954,00;96,50
3952,00;96,49
3950,00;96,48
3948,00;96,47
3946,00;96,47
3944,00;96,46
3942,00;96,46
3940,00;96,46
3938,00;96,45
3936,00;96,45
3934,00;96,45
3932,00;96,45
3930,00;96,44
3928,00;96,44
3926,00;96,43
3924,00;96,43
3922,00;96,43
3920,00;96,43
3918,00;96,43
3916,00;96,43
3914,00;96,42
3912,00;96,40
3910,00;96,38
3908,00;96,36
3906,00;96,36
3904,00;96,37
3902,00;96,41
3900,00;96,46
3898,00;96,51
3896,00;96,55
3894,00;96,56
3892,00;96,55
3890,00;96,53
3888,00;96,50
3886,00;96,48
3884,00;96,47
3882,00;96,47
3880,00;96,47
3878,00;96,47
3876,00;96,47
3874,00;96,46
3872,00;96,45
3870,00;96,44
3868,00;96,43
3866,00;96,42
3864,00;96,40
3862,00;96,39
3860,00;96,37
3858,00;96,36
3856,00;96,34
3854,00;96,33
3852,00;96,32
3850,00;96,31
3848,00;96,31
3846,00;96,31
3844,00;96,32
3842,00;96,32
3840,00;96,33
3838,00;96,34
3836,00;96,34
3834,00;96,35
3832,00;96,36
3830,00;96,36
3828,00;96,37
3826,00;96,38
3824,00;96,39
3822,00;96,39
3820,00;96,40
3818,00;96,41
3816,00;96,42
3814,00;96,43
3812,00;96,44
3810,00;96,46
3808,00;96,47
3806,00;96,48
3804,00;96,49
3802,00;96,50
3800,00;96,52
3798,00;96,53
3796,00;96,54
3794,00;96,56
3792,00;96,57
3790,00;96,59
3788,00;96,61
3786,00;96,62
3784,00;96,63
3782,00;96,64
3780,00;96,65
3778,00;96,65
3776,00;96,65
3774,00;96,64
3772,00;96,64
3770,00;96,64
3768,00;96,63
3766,00;96,63
3764,00;96,63
3762,00;96,64
3760,00;96,64
3758,00;96,64
3756,00;96,65
3754,00;96,66
3752,00;96,66
3750,00;96,66
3748,00;96,65
3746,00;96,63
3744,00;96,61
3742,00;96,58
3740,00;96,55
3738,00;96,51
3736,00;96,48
3734,00;96,45
3732,00;96,43
3730,00;96,42
3728,00;96,41
3726,00;96,41
3724,00;96,41
3722,00;96,40
3720,00;96,39
3718,00;96,38
3716,00;96,36
3714,00;96,34
3712,00;96,30
3710,00;96,26
3708,00;96,22
3706,00;96,18
3704,00;96,13
3702,00;96,09
3700,00;96,05
3698,00;96,02
3696,00;96,00
3694,00;95,99
3692,00;95,97
3690,00;95,97
3688,00;95,97
3686,00;95,96
3684,00;95,95
3682,00;95,94
3680,00;95,93
3678,00;95,90
3676,00;95,88
3674,00;95,85
3672,00;95,81
3670,00;95,78
3668,00;95,76
3666,00;95,74
3664,00;95,73
3662,00;95,72
3660,00;95,72
3658,00;95,72
3656,00;95,73
3654,00;95,74
3652,00;95,76
3650,00;95,77
3648,00;95,78
3646,00;95,80
3644,00;95,81
3642,00;95,81
3640,00;95,82
3638,00;95,83
3636,00;95,83
3634,00;95,84
3632,00;95,85
3630,00;95,86
3628,00;95,88
3626,00;95,91
3624,00;95,94
3622,00;95,97
3620,00;96,01
3618,00;96,04
3616,00;96,07
3614,00;96,11
3612,00;96,14
3610,00;96,17
3608,00;96,20
3606,00;96,22
3604,00;96,25
3602,00;96,27
3600,00;96,29
3598,00;96,31
3596,00;96,33
3594,00;96,34
3592,00;96,36
3590,00;96,38
3588,00;96,40
3586,00;96,42
3584,00;96,44
3582,00;96,45
3580,00;96,47
3578,00;96,48
3576,00;96,50
3574,00;96,51
3572,00;96,52
3570,00;96,53
3568,00;96,54
3566,00;96,55
3564,00;96,55
3562,00;96,55
3560,00;96,55
3558,00;96,54
3556,00;96,53
3554,00;96,52
3552,00;96,50
3550,00;96,49
3548,00;96,47
3546,00;96,46
3544,00;96,45
3542,00;96,44
3540,00;96,43
3538,00;96,43
3536,00;96,42
3534,00;96,42
3532,00;96,42
3530,00;96,41
3528,00;96,41
3526,00;96,40
3524,00;96,40
3522,00;96,39
3520,00;96,38
3518,00;96,37
3516,00;96,36
3514,00;96,35
3512,00;96,34
3510,00;96,33
3508,00;96,32
3506,00;96,31
3504,00;96,30
3502,00;96,30
3500,00;96,29
3498,00;96,29
3496,00;96,29
3494,00;96,28
3492,00;96,28
3490,00;96,28
3488,00;96,28
3486,00;96,28
3484,00;96,28
3482,00;96,28
3480,00;96,28
3478,00;96,29
3476,00;96,29
3474,00;96,30
3472,00;96,30
3470,00;96,31
3468,00;96,31
3466,00;96,31
3464,00;96,32
3462,00;96,32
3460,00;96,32
3458,00;96,32
3456,00;96,31
3454,00;96,31
3452,00;96,30
3450,00;96,29
3448,00;96,27
3446,00;96,26
3444,00;96,24
3442,00;96,22
3440,00;96,20
3438,00;96,17
3436,00;96,15
3434,00;96,13
3432,00;96,10
3430,00;96,08
3428,00;96,05
3426,00;96,03
3424,00;96,01
3422,00;95,99
3420,00;95,97
3418,00;95,95
3416,00;95,93
3414,00;95,92
3412,00;95,91
3410,00;95,90
3408,00;95,89
3406,00;95,88
3404,00;95,87
3402,00;95,86
3400,00;95,86
3398,00;95,85
3396,00;95,85
3394,00;95,85
3392,00;95,84
3390,00;95,84
3388,00;95,84
3386,00;95,83
3384,00;95,83
3382,00;95,83
3380,00;95,83
3378,00;95,83
3376,00;95,83
3374,00;95,82
3372,00;95,82
3370,00;95,82
3368,00;95,82
3366,00;95,82
3364,00;95,82
3362,00;95,82
3360,00;95,81
3358,00;95,81
3356,00;95,81
3354,00;95,80
3352,00;95,80
3350,00;95,80
3348,00;95,79
3346,00;95,79
3344,00;95,79
3342,00;95,79
3340,00;95,79
3338,00;95,79
3336,00;95,78
3334,00;95,79
3332,00;95,79
3330,00;95,79
3328,00;95,79
3326,00;95,79
3324,00;95,79
3322,00;95,79
3320,00;95,79
3318,00;95,79
3316,00;95,80
3314,00;95,80
3312,00;95,80
3310,00;95,80
3308,00;95,80
3306,00;95,81
3304,00;95,81
3302,00;95,81
3300,00;95,81
3298,00;95,81
3296,00;95,82
3294,00;95,82
3292,00;95,82
3290,00;95,82
3288,00;95,82
3286,00;95,82
3284,00;95,82
3282,00;95,81
3280,00;95,81
3278,00;95,81
3276,00;95,81
3274,00;95,81
3272,00;95,81
3270,00;95,80
3268,00;95,80
3266,00;95,80
3264,00;95,80
3262,00;95,80
3260,00;95,79
3258,00;95,79
3256,00;95,79
3254,00;95,79
3252,00;95,79
3250,00;95,80
3248,00;95,80
3246,00;95,80
3244,00;95,80
3242,00;95,80
3240,00;95,80
3238,00;95,80
3236,00;95,80
3234,00;95,80
3232,00;95,80
3230,00;95,80
3228,00;95,80
3226,00;95,80
3224,00;95,81
3222,00;95,81
3220,00;95,81
3218,00;95,81
3216,00;95,81
3214,00;95,81
3212,00;95,82
3210,00;95,82
3208,00;95,82
3206,00;95,82
3204,00;95,83
3202,00;95,83
3200,00;95,83
3198,00;95,84
3196,00;95,84
3194,00;95,85
3192,00;95,85
3190,00;95,85
3188,00;95,86
3186,00;95,86
3184,00;95,87
3182,00;95,87
3180,00;95,88
3178,00;95,88
3176,00;95,89
3174,00;95,89
3172,00;95,90
3170,00;95,90
3168,00;95,91
3166,00;95,91
3164,00;95,92
3162,00;95,92
3160,00;95,93
3158,00;95,93
3156,00;95,94
3154,00;95,95
3152,00;95,96
3150,00;95,97
3148,00;95,98
3146,00;95,99
3144,00;96,00
3142,00;96,01
3140,00;96,03
3138,00;96,04
3136,00;96,06
3134,00;96,07
3132,00;96,09
3130,00;96,11
3128,00;96,13
3126,00;96,15
3124,00;96,17
3122,00;96,19
3120,00;96,21
3118,00;96,24
3116,00;96,26
3114,00;96,29
3112,00;96,31
3110,00;96,34
3108,00;96,36
3106,00;96,39
3104,00;96,42
3102,00;96,44
3100,00;96,47
3098,00;96,50
3096,00;96,52
3094,00;96,55
3092,00;96,58
3090,00;96,60
3088,00;96,63
3086,00;96,65
3084,00;96,68
3082,00;96,70
3080,00;96,72
3078,00;96,75
3076,00;96,77
3074,00;96,79
3072,00;96,81
3070,00;96,83
3068,00;96,85
3066,00;96,87
3064,00;96,89
3062,00;96,92
3060,00;96,95
3058,00;96,98
3056,00;97,02
3054,00;97,06
3052,00;97,11
3050,00;97,16
3048,00;97,22
3046,00;97,28
3044,00;97,35
3042,00;97,42
3040,00;97,49
3038,00;97,56
3036,00;97,64
3034,00;97,71
3032,00;97,78
3030,00;97,85
3028,00;97,91
3026,00;97,97
3024,00;98,02
3022,00;98,06
3020,00;98,10
3018,00;98,13
3016,00;98,15
3014,00;98,16
3012,00;98,17
3010,00;98,17
3008,00;98,17
3006,00;98,16
3004,00;98,14
3002,00;98,13
3000,00;98,11
2998,00;98,10
2996,00;98,08
2994,00;98,07
2992,00;98,07
2990,00;98,07
2988,00;98,07
2986,00;98,08
2984,00;98,08
2982,00;98,09
2980,00;98,11
2978,00;98,12
2976,00;98,13
2974,00;98,14
2972,00;98,15
2970,00;98,15
2968,00;98,16
2966,00;98,16
2964,00;98,15
2962,00;98,15
2960,00;98,13
2958,00;98,12
2956,00;98,11
2954,00;98,09
2952,00;98,07
2950,00;98,05
2948,00;98,03
2946,00;98,01
2944,00;97,99
2942,00;97,97
2940,00;97,95
2938,00;97,93
2936,00;97,90
2934,00;97,87
2932,00;97,84
2930,00;97,80
2928,00;97,76
2926,00;97,72
2924,00;97,68
2922,00;97,64
2920,00;97,59
2918,00;97,55
2916,00;97,50
2914,00;97,46
2912,00;97,42
2910,00;97,37
2908,00;97,34
2906,00;97,30
2904,00;97,27
2902,00;97,24
2900,00;97,21
2898,00;97,19
2896,00;97,17
2894,00;97,15
2892,00;97,13
2890,00;97,12
2888,00;97,11
2886,00;97,11
2884,00;97,10
2882,00;97,10
2880,00;97,10
2878,00;97,10
2876,00;97,11
2874,00;97,11
2872,00;97,11
2870,00;97,12
2868,00;97,12
2866,00;97,13
2864,00;97,13
2862,00;97,13
2860,00;97,13
2858,00;97,13
2856,00;97,13
2854,00;97,13
2852,00;97,13
2850,00;97,13
2848,00;97,13
2846,00;97,13
2844,00;97,12
2842,00;97,12
2840,00;97,12
2838,00;97,11
2836,00;97,11
2834,00;97,10
2832,00;97,10
2830,00;97,10
2828,00;97,09
2826,00;97,09
2824,00;97,09
2822,00;97,09
2820,00;97,09
2818,00;97,08
2816,00;97,09
2814,00;97,09
2812,00;97,09
2810,00;97,09
2808,00;97,09
2806,00;97,10
2804,00;97,10
2802,00;97,10
2800,00;97,10
2798,00;97,11
2796,00;97,11
2794,00;97,11
2792,00;97,11
2790,00;97,11
2788,00;97,11
2786,00;97,11
2784,00;97,11
2782,00;97,11
2780,00;97,11
2778,00;97,11
2776,00;97,11
2774,00;97,11
2772,00;97,11
2770,00;97,11
2768,00;97,11
2766,00;97,12
2764,00;97,12
2762,00;97,12
2760,00;97,12
2758,00;97,12
2756,00;97,12
2754,00;97,12
2752,00;97,12
2750,00;97,13
2748,00;97,13
2746,00;97,13
2744,00;97,13
2742,00;97,13
2740,00;97,14
2738,00;97,14
2736,00;97,14
2734,00;97,14
2732,00;97,14
2730,00;97,15
2728,00;97,15
2726,00;97,15
2724,00;97,15
2722,00;97,16
2720,00;97,16
2718,00;97,16
2716,00;97,16
2714,00;97,17
2712,00;97,17
2710,00;97,17
2708,00;97,17
2706,00;97,17
2704,00;97,18
2702,00;97,18
2700,00;97,18
2698,00;97,18
2696,00;97,18
2694,00;97,18
2692,00;97,19
2690,00;97,19
2688,00;97,19
2686,00;97,19
2684,00;97,19
2682,00;97,19
2680,00;97,19
2678,00;97,19
2676,00;97,20
2674,00;97,20
2672,00;97,20
2670,00;97,20
2668,00;97,20
2666,00;97,20
2664,00;97,20
2662,00;97,21
2660,00;97,21
2658,00;97,21
2656,00;97,21
2654,00;97,21
2652,00;97,21
2650,00;97,21
2648,00;97,21
2646,00;97,21
2644,00;97,21
2642,00;97,22
2640,00;97,22
2638,00;97,22
2636,00;97,22
2634,00;97,22
2632,00;97,23
2630,00;97,23
2628,00;97,23
2626,00;97,23
2624,00;97,24
2622,00;97,24
2620,00;97,24
2618,00;97,25
2616,00;97,25
2614,00;97,26
2612,00;97,26
2610,00;97,27
2608,00;97,28
2606,00;97,28
2604,00;97,29
2602,00;97,30
2600,00;97,31
2598,00;97,32
2596,00;97,32
2594,00;97,33
2592,00;97,34
2590,00;97,35
2588,00;97,36
2586,00;97,36
2584,00;97,37
2582,00;97,38
2580,00;97,38
2578,00;97,39
2576,00;97,39
2574,00;97,40
2572,00;97,40
2570,00;97,41
2568,00;97,41
2566,00;97,41
2564,00;97,41
2562,00;97,41
2560,00;97,42
2558,00;97,42
2556,00;97,42
2554,00;97,42
2552,00;97,42
2550,00;97,42
2548,00;97,42
2546,00;97,42
2544,00;97,42
2542,00;97,43
2540,00;97,43
2538,00;97,43
2536,00;97,43
2534,00;97,44
2532,00;97,44
2530,00;97,45
2528,00;97,45
2526,00;97,45
2524,00;97,46
2522,00;97,46
2520,00;97,47
2518,00;97,47
2516,00;97,47
2514,00;97,48
2512,00;97,48
2510,00;97,48
2508,00;97,49
2506,00;97,49
2504,00;97,50
2502,00;97,50
2500,00;97,50
2498,00;97,51
2496,00;97,51
2494,00;97,51
2492,00;97,52
2490,00;97,52
2488,00;97,53
2486,00;97,53
2484,00;97,54
2482,00;97,54
2480,00;97,55
2478,00;97,55
2476,00;97,56
2474,00;97,56
2472,00;97,57
2470,00;97,57
2468,00;97,58
2466,00;97,58
2464,00;97,58
2462,00;97,59
2460,00;97,59
2458,00;97,60
2456,00;97,60
2454,00;97,61
2452,00;97,61
2450,00;97,62
2448,00;97,62
2446,00;97,63
2444,00;97,63
2442,00;97,64
2440,00;97,64
2438,00;97,65
2436,00;97,65
2434,00;97,65
2432,00;97,66
2430,00;97,66
2428,00;97,67
2426,00;97,67
2424,00;97,67
2422,00;97,68
2420,00;97,68
2418,00;97,69
2416,00;97,69
2414,00;97,70
2412,00;97,70
2410,00;97,71
2408,00;97,72
2406,00;97,72
2404,00;97,72
2402,00;97,73
2400,00;97,73
2398,00;97,73
2396,00;97,73
2394,00;97,73
2392,00;97,73
2390,00;97,73
2388,00;97,73
2386,00;97,73
2384,00;97,73
2382,00;97,73
2380,00;97,73
2378,00;97,73
2376,00;97,73
2374,00;97,73
2372,00;97,73
2370,00;97,74
2368,00;97,74
2366,00;97,75
2364,00;97,77
2362,00;97,78
2360,00;97,79
2358,00;97,79
2356,00;97,79
2354,00;97,79
2352,00;97,78
2350,00;97,77
2348,00;97,77
2346,00;97,76
2344,00;97,76
2342,00;97,76
2340,00;97,76
2338,00;97,76
2336,00;97,77
2334,00;97,78
2332,00;97,79
2330,00;97,79
2328,00;97,80
2326,00;97,81
2324,00;97,81
2322,00;97,82
2320,00;97,82
2318,00;97,82
2316,00;97,82
2314,00;97,83
2312,00;97,83
2310,00;97,83
2308,00;97,83
2306,00;97,83
2304,00;97,84
2302,00;97,84
2300,00;97,84
2298,00;97,85
2296,00;97,85
2294,00;97,85
2292,00;97,86
2290,00;97,86
2288,00;97,86
2286,00;97,86
2284,00;97,86
2282,00;97,86
2280,00;97,86
2278,00;97,86
2276,00;97,86
2274,00;97,86
2272,00;97,86
2270,00;97,86
2268,00;97,87
2266,00;97,87
2264,00;97,87
2262,00;97,88
2260,00;97,88
2258,00;97,88
2256,00;97,89
2254,00;97,89
2252,00;97,89
2250,00;97,90
2248,00;97,90
2246,00;97,90
2244,00;97,91
2242,00;97,91
2240,00;97,91
2238,00;97,91
2236,00;97,91
2234,00;97,91
2232,00;97,91
2230,00;97,90
2228,00;97,90
2226,00;97,90
2224,00;97,90
2222,00;97,90
2220,00;97,89
2218,00;97,89
2216,00;97,89
2214,00;97,89
2212,00;97,89
2210,00;97,89
2208,00;97,88
2206,00;97,88
2204,00;97,88
2202,00;97,88
2200,00;97,89
2198,00;97,89
2196,00;97,89
2194,00;97,89
2192,00;97,89
2190,00;97,89
2188,00;97,90
2186,00;97,90
2184,00;97,90
2182,00;97,90
2180,00;97,90
2178,00;97,90
2176,00;97,90
2174,00;97,90
2172,00;97,91
2170,00;97,91
2168,00;97,92
2166,00;97,93
2164,00;97,94
2162,00;97,95
2160,00;97,97
2158,00;97,98
2156,00;98,00
2154,00;98,02
2152,00;98,03
2150,00;98,04
2148,00;98,05
2146,00;98,06
2144,00;98,06
2142,00;98,06
2140,00;98,06
2138,00;98,06
2136,00;98,06
2134,00;98,05
2132,00;98,05
2130,00;98,04
2128,00;98,03
2126,00;98,02
2124,00;98,02
2122,00;98,01
2120,00;98,00
2118,00;97,99
2116,00;97,99
2114,00;97,98
2112,00;97,97
2110,00;97,96
2108,00;97,95
2106,00;97,95
2104,00;97,94
2102,00;97,93
2100,00;97,92
2098,00;97,92
2096,00;97,91
2094,00;97,90
2092,00;97,90
2090,00;97,89
2088,00;97,89
2086,00;97,88
2084,00;97,88
2082,00;97,87
2080,00;97,87
2078,00;97,87
2076,00;97,86
2074,00;97,86
2072,00;97,86
2070,00;97,86
2068,00;97,86
2066,00;97,86
2064,00;97,87
2062,00;97,87
2060,00;97,87
2058,00;97,87
2056,00;97,87
2054,00;97,87
2052,00;97,87
2050,00;97,87
2048,00;97,87
2046,00;97,87
2044,00;97,88
2042,00;97,88
2040,00;97,88
2038,00;97,89
2036,00;97,89
2034,00;97,90
2032,00;97,91
2030,00;97,91
2028,00;97,92
2026,00;97,93
2024,00;97,94
2022,00;97,94
2020,00;97,95
2018,00;97,95
2016,00;97,95
2014,00;97,95
2012,00;97,95
2010,00;97,95
2008,00;97,95
2006,00;97,95
2004,00;97,96
2002,00;97,96
2000,00;97,96
1998,00;97,97
1996,00;97,97
1994,00;97,98
1992,00;97,98
1990,00;97,98
1988,00;97,98
1986,00;97,98
1984,00;97,98
1982,00;97,98
1980,00;97,98
1978,00;97,98
1976,00;97,98
1974,00;97,98
1972,00;97,98
1970,00;97,99
1968,00;97,99
1966,00;98,00
1964,00;98,01
1962,00;98,02
1960,00;98,02
1958,00;98,03
1956,00;98,03
1954,00;98,03
1952,00;98,03
1950,00;98,02
1948,00;98,02
1946,00;98,01
1944,00;98,00
1942,00;98,00
1940,00;97,99
1938,00;97,98
1936,00;97,98
1934,00;97,98
1932,00;97,97
1930,00;97,97
1928,00;97,97
1926,00;97,98
1924,00;97,98
1922,00;97,98
1920,00;97,99
1918,00;97,99
1916,00;97,99
1914,00;98,00
1912,00;98,00
1910,00;98,00
1908,00;98,00
1906,00;98,00
1904,00;97,99
1902,00;97,99
1900,00;97,99
1898,00;97,99
1896,00;97,98
1894,00;97,98
1892,00;97,98
1890,00;97,98
1888,00;97,98
1886,00;97,98
1884,00;97,98
1882,00;97,98
1880,00;97,99
1878,00;97,99
1876,00;97,99
1874,00;97,99
1872,00;97,99
1870,00;97,98
1868,00;97,98
1866,00;97,97
1864,00;97,96
1862,00;97,95
1860,00;97,93
1858,00;97,92
1856,00;97,91
1854,00;97,91
1852,00;97,91
1850,00;97,91
1848,00;97,93
1846,00;97,95
1844,00;97,97
1842,00;98,00
1840,00;98,03
1838,00;98,06
1836,00;98,09
1834,00;98,12
1832,00;98,15
1830,00;98,17
1828,00;98,20
1826,00;98,22
1824,00;98,24
1822,00;98,27
1820,00;98,29
1818,00;98,32
1816,00;98,36
1814,00;98,41
1812,00;98,47
1810,00;98,53
1808,00;98,61
1806,00;98,69
1804,00;98,79
1802,00;98,89
1800,00;99,01
1798,00;99,13
1796,00;99,28
1794,00;99,44
1792,00;99,62
1790,00;99,82
1788,00;100,05
1786,00;100,30
1784,00;100,58
1782,00;100,90
1780,00;101,26
1778,00;101,65
1776,00;102,08
1774,00;102,55
1772,00;103,06
1770,00;103,61
1768,00;104,19
1766,00;104,80
1764,00;105,45
1762,00;106,12
1760,00;106,80
1758,00;107,49
1756,00;108,18
1754,00;108,85
1752,00;109,49
1750,00;110,08
1748,00;110,60
1746,00;111,03
1744,00;111,37
1742,00;111,60
1740,00;111,71
1738,00;111,70
1736,00;111,56
1734,00;111,32
1732,00;110,97
1730,00;110,52
1728,00;110,00
1726,00;109,41
1724,00;108,77
1722,00;108,09
1720,00;107,38
1718,00;106,65
1716,00;105,92
1714,00;105,19
1712,00;104,48
1710,00;103,78
1708,00;103,12
1706,00;102,48
1704,00;101,88
1702,00;101,33
1700,00;100,81
1698,00;100,34
1696,00;99,91
1694,00;99,52
1692,00;99,18
1690,00;98,87
1688,00;98,60
1686,00;98,36
1684,00;98,14
1682,00;97,95
1680,00;97,78
1678,00;97,63
1676,00;97,50
1674,00;97,39
1672,00;97,30
1670,00;97,23
1668,00;97,18
1666,00;97,15
1664,00;97,14
1662,00;97,14
1660,00;97,15
1658,00;97,17
1656,00;97,19
1654,00;97,22
1652,00;97,25
1650,00;97,27
1648,00;97,28
1646,00;97,28
1644,00;97,28
1642,00;97,27
1640,00;97,25
1638,00;97,24
1636,00;97,24
1634,00;97,24
1632,00;97,24
1630,00;97,26
1628,00;97,28
1626,00;97,30
1624,00;97,32
1622,00;97,35
1620,00;97,38
1618,00;97,41
1616,00;97,43
1614,00;97,44
1612,00;97,45
1610,00;97,44
1608,00;97,43
1606,00;97,41
1604,00;97,39
1602,00;97,37
1600,00;97,34
1598,00;97,32
1596,00;97,31
1594,00;97,30
1592,00;97,30
1590,00;97,31
1588,00;97,32
1586,00;97,34
1584,00;97,37
1582,00;97,40
1580,00;97,42
1578,00;97,45
1576,00;97,48
1574,00;97,50
1572,00;97,52
1570,00;97,53
1568,00;97,55
1566,00;97,56
1564,00;97,57
1562,00;97,58
1560,00;97,59
1558,00;97,60
1556,00;97,61
1554,00;97,62
1552,00;97,64
1550,00;97,66
1548,00;97,69
1546,00;97,72
1544,00;97,75
1542,00;97,77
1540,00;97,80
1538,00;97,83
1536,00;97,86
1534,00;97,88
1532,00;97,91
1530,00;97,93
1528,00;97,95
1526,00;97,97
1524,00;97,98
1522,00;97,99
1520,00;98,00
1518,00;98,01
1516,00;98,02
1514,00;98,04
1512,00;98,05
1510,00;98,07
1508,00;98,09
1506,00;98,12
1504,00;98,14
1502,00;98,16
1500,00;98,18
1498,00;98,20
1496,00;98,22
1494,00;98,25
1492,00;98,27
1490,00;98,30
1488,00;98,32
1486,00;98,34
1484,00;98,37
1482,00;98,40
1480,00;98,44
1478,00;98,49
1476,00;98,54
1474,00;98,61
1472,00;98,68
1470,00;98,75
1468,00;98,83
1466,00;98,91
1464,00;98,98
1462,00;99,05
1460,00;99,12
1458,00;99,18
1456,00;99,23
1454,00;99,28
1452,00;99,32
1450,00;99,36
1448,00;99,39
1446,00;99,42
1444,00;99,44
1442,00;99,46
1440,00;99,47
1438,00;99,49
1436,00;99,50
1434,00;99,50
1432,00;99,50
1430,00;99,50
1428,00;99,49
1426,00;99,47
1424,00;99,44
1422,00;99,41
1420,00;99,38
1418,00;99,35
1416,00;99,32
1414,00;99,31
1412,00;99,31
1410,00;99,33
1408,00;99,38
1406,00;99,47
1404,00;99,59
1402,00;99,76
1400,00;99,98
1398,00;100,24
1396,00;100,54
1394,00;100,89
1392,00;101,28
1390,00;101,70
1388,00;102,14
1386,00;102,60
1384,00;103,06
1382,00;103,51
1380,00;103,94
1378,00;104,34
1376,00;104,70
1374,00;105,00
1372,00;105,25
1370,00;105,42
1368,00;105,53
1366,00;105,56
1364,00;105,52
1362,00;105,41
1360,00;105,23
1358,00;104,98
1356,00;104,69
1354,00;104,34
1352,00;103,96
1350,00;103,56
1348,00;103,13
1346,00;102,70
1344,00;102,26
1342,00;101,83
1340,00;101,42
1338,00;101,02
1336,00;100,64
1334,00;100,29
1332,00;99,98
1330,00;99,69
1328,00;99,43
1326,00;99,20
1324,00;99,00
1322,00;98,84
1320,00;98,69
1318,00;98,58
1316,00;98,48
1314,00;98,40
1312,00;98,34
1310,00;98,28
1308,00;98,24
1306,00;98,20
1304,00;98,17
1302,00;98,14
1300,00;98,11
1298,00;98,09
1296,00;98,07
1294,00;98,05
1292,00;98,03
1290,00;98,01
1288,00;98,00
1286,00;97,99
1284,00;97,98
1282,00;97,97
1280,00;97,96
1278,00;97,96
1276,00;97,95
1274,00;97,95
1272,00;97,95
1270,00;97,96
1268,00;97,98
1266,00;98,01
1264,00;98,05
1262,00;98,12
1260,00;98,22
1258,00;98,34
1256,00;98,50
1254,00;98,70
1252,00;98,94
1250,00;99,22
1248,00;99,54
1246,00;99,91
1244,00;100,31
1242,00;100,74
1240,00;101,20
1238,00;101,68
1236,00;102,17
1234,00;102,65
1232,00;103,11
1230,00;103,55
1228,00;103,94
1226,00;104,28
1224,00;104,55
1222,00;104,75
1220,00;104,86
1218,00;104,89
1216,00;104,84
1214,00;104,69
1212,00;104,46
1210,00;104,16
1208,00;103,78
1206,00;103,33
1204,00;102,83
1202,00;102,28
1200,00;101,71
1198,00;101,10
1196,00;100,49
1194,00;99,87
1192,00;99,25
1190,00;98,65
1188,00;98,07
1186,00;97,51
1184,00;96,99
1182,00;96,50
1180,00;96,04
1178,00;95,62
1176,00;95,24
1174,00;94,89
1172,00;94,58
1170,00;94,30
1168,00;94,04
1166,00;93,81
1164,00;93,60
1162,00;93,41
1160,00;93,23
1158,00;93,05
1156,00;92,88
1154,00;92,71
1152,00;92,54
1150,00;92,36
1148,00;92,17
1146,00;91,98
1144,00;91,78
1142,00;91,57
1140,00;91,36
1138,00;91,13
1136,00;90,90
1134,00;90,66
1132,00;90,42
1130,00;90,17
1128,00;89,92
1126,00;89,66
1124,00;89,40
1122,00;89,15
1120,00;88,90
1118,00;88,65
1116,00;88,40
1114,00;88,17
1112,00;87,94
1110,00;87,73
1108,00;87,53
1106,00;87,34
1104,00;87,17
1102,00;87,01
1100,00;86,86
1098,00;86,72
1096,00;86,59
1094,00;86,47
1092,00;86,34
1090,00;86,22
1088,00;86,08
1086,00;85,94
1084,00;85,79
1082,00;85,62
1080,00;85,44
1078,00;85,23
1076,00;85,00
1074,00;84,75
1072,00;84,47
1070,00;84,16
1068,00;83,83
1066,00;83,47
1064,00;83,08
1062,00;82,66
1060,00;82,22
1058,00;81,75
1056,00;81,27
1054,00;80,77
1052,00;80,27
1050,00;79,77
1048,00;79,28
1046,00;78,80
1044,00;78,34
1042,00;77,90
1040,00;77,50
1038,00;77,12
1036,00;76,78
1034,00;76,48
1032,00;76,22
1030,00;75,99
1028,00;75,79
1026,00;75,62
1024,00;75,48
1022,00;75,37
1020,00;75,29
1018,00;75,24
1016,00;75,21
1014,00;75,21
1012,00;75,25
1010,00;75,31
1008,00;75,40
1006,00;75,53
1004,00;75,70
1002,00;75,90
1000,00;76,14
998,00;76,41
996,00;76,71
994,00;77,04
992,00;77,39
990,00;77,77
988,00;78,16
986,00;78,56
984,00;78,98
982,00;79,40
980,00;79,81
978,00;80,23
976,00;80,64
974,00;81,04
972,00;81,43
970,00;81,81
968,00;82,17
966,00;82,51
964,00;82,84
962,00;83,14
960,00;83,42
958,00;83,68
956,00;83,92
954,00;84,13
952,00;84,32
950,00;84,48
948,00;84,62
946,00;84,73
944,00;84,82
942,00;84,89
940,00;84,94
938,00;84,97
936,00;84,99
934,00;85,00
932,00;84,99
930,00;84,98
928,00;84,96
926,00;84,95
924,00;84,94
922,00;84,94
920,00;84,94
918,00;84,97
916,00;85,02
914,00;85,08
912,00;85,17
910,00;85,29
908,00;85,43
906,00;85,60
904,00;85,80
902,00;86,02
900,00;86,25
898,00;86,50
896,00;86,77
894,00;87,04
892,00;87,31
890,00;87,58
888,00;87,84
886,00;88,10
884,00;88,35
882,00;88,59
880,00;88,82
878,00;89,04
876,00;89,25
874,00;89,45
872,00;89,64
870,00;89,83
868,00;90,01
866,00;90,18
864,00;90,35
862,00;90,51
860,00;90,66
858,00;90,80
856,00;90,93
854,00;91,05
852,00;91,16
850,00;91,26
848,00;91,35
846,00;91,43
844,00;91,50
842,00;91,57
840,00;91,62
838,00;91,66
836,00;91,69
834,00;91,71
832,00;91,71
830,00;91,69
828,00;91,64
826,00;91,57
824,00;91,47
822,00;91,34
820,00;91,18
818,00;90,99
816,00;90,78
814,00;90,54
812,00;90,28
810,00;90,01
808,00;89,72
806,00;89,44
804,00;89,15
802,00;88,88
800,00;88,61
798,00;88,36
796,00;88,14
794,00;87,93
792,00;87,75
790,00;87,60
788,00;87,47
786,00;87,37
784,00;87,30
782,00;87,25
780,00;87,22
778,00;87,22
776,00;87,24
774,00;87,28
772,00;87,33
770,00;87,40
768,00;87,48
766,00;87,56
764,00;87,65
762,00;87,75
760,00;87,84
758,00;87,94
756,00;88,04
754,00;88,14
752,00;88,23
750,00;88,33
748,00;88,42
746,00;88,51
744,00;88,59
742,00;88,67
740,00;88,75
738,00;88,82
736,00;88,89
734,00;88,94
732,00;88,99
730,00;89,03
728,00;89,05
726,00;89,06
724,00;89,06
722,00;89,04
720,00;89,00
718,00;88,94
716,00;88,87
714,00;88,78
712,00;88,67
710,00;88,55
708,00;88,42
706,00;88,28
704,00;88,13
702,00;87,98
700,00;87,83
698,00;87,68
696,00;87,54
694,00;87,41
692,00;87,29
690,00;87,19
688,00;87,10
686,00;87,03
684,00;86,97
682,00;86,94
680,00;86,91
678,00;86,90
676,00;86,90
674,00;86,91
672,00;86,91
670,00;86,92
668,00;86,91
666,00;86,90
664,00;86,88
662,00;86,84
660,00;86,79
658,00;86,72
656,00;86,65
654,00;86,56
652,00;86,46
650,00;86,36
648,00;86,25
646,00;86,14
644,00;86,03
642,00;85,92
640,00;85,80
638,00;85,69
636,00;85,57
634,00;85,46
632,00;85,33
630,00;85,20
628,00;85,07
626,00;84,92
624,00;84,77
622,00;84,62
620,00;84,46
618,00;84,30
616,00;84,14
614,00;83,98
612,00;83,83
610,00;83,67
608,00;83,52
606,00;83,35
604,00;83,18
602,00;83,01
600,00;82,84
