Created as New Dataset;
cm-1;%T
4000,00;99,26
3998,00;99,26
3996,00;99,26
3994,00;99,26
3992,00;99,26
3990,00;99,26
3988,00;99,26
3986,00;99,26
3984,00;99,26
3982,00;99,25
3980,00;99,25
3978,00;99,25
3976,00;99,25
3974,00;99,25
3972,00;99,25
3970,00;99,25
3968,00;99,25
3966,00;99,25
3964,00;99,24
3962,00;99,24
3960,00;99,24
3958,00;99,24
3956,00;99,24
3954,00;99,24
3952,00;99,24
3950,00;99,24
3948,00;99,24
3946,00;99,24
3944,00;99,24
3942,00;99,24
3940,00;99,24
3938,00;99,24
3936,00;99,24
3934,00;99,24
3932,00;99,24
3930,00;99,24
3928,00;99,23
3926,00;99,23
3924,00;99,23
3922,00;99,23
3920,00;99,23
3918,00;99,22
3916,00;99,22
3914,00;99,22
3912,00;99,22
3910,00;99,22
3908,00;99,22
3906,00;99,21
3904,00;99,21
3902,00;99,21
3900,00;99,21
3898,00;99,21
3896,00;99,21
3894,00;99,21
3892,00;99,21
3890,00;99,21
3888,00;99,21
3886,00;99,21
3884,00;99,21
3882,00;99,21
3880,00;99,21
3878,00;99,20
3876,00;99,20
3874,00;99,20
3872,00;99,20
3870,00;99,21
3868,00;99,22
3866,00;99,23
3864,00;99,23
3862,00;99,24
3860,00;99,24
3858,00;99,23
3856,00;99,22
3854,00;99,22
3852,00;99,22
3850,00;99,21
3848,00;99,21
3846,00;99,21
3844,00;99,20
3842,00;99,20
3840,00;99,19
3838,00;99,18
3836,00;99,18
3834,00;99,17
3832,00;99,16
3830,00;99,16
3828,00;99,15
3826,00;99,15
3824,00;99,14
3822,00;99,14
3820,00;99,14
3818,00;99,14
3816,00;99,13
3814,00;99,13
3812,00;99,13
3810,00;99,13
3808,00;99,13
3806,00;99,14
3804,00;99,14
3802,00;99,14
3800,00;99,14
3798,00;99,14
3796,00;99,14
3794,00;99,14
3792,00;99,14
3790,00;99,15
3788,00;99,15
3786,00;99,15
3784,00;99,15
3782,00;99,16
3780,00;99,16
3778,00;99,16
3776,00;99,16
3774,00;99,17
3772,00;99,17
3770,00;99,17
3768,00;99,17
3766,00;99,18
3764,00;99,18
3762,00;99,18
3760,00;99,18
3758,00;99,19
3756,00;99,19
3754,00;99,19
3752,00;99,20
3750,00;99,20
3748,00;99,20
3746,00;99,21
3744,00;99,21
3742,00;99,21
3740,00;99,21
3738,00;99,21
3736,00;99,21
3734,00;99,21
3732,00;99,20
3730,00;99,20
3728,00;99,20
3726,00;99,19
3724,00;99,19
3722,00;99,19
3720,00;99,19
3718,00;99,19
3716,00;99,18
3714,00;99,18
3712,00;99,18
3710,00;99,18
3708,00;99,18
3706,00;99,18
3704,00;99,18
3702,00;99,18
3700,00;99,18
3698,00;99,17
3696,00;99,17
3694,00;99,17
3692,00;99,16
3690,00;99,16
3688,00;99,15
3686,00;99,15
3684,00;99,14
3682,00;99,14
3680,00;99,14
3678,00;99,14
3676,00;99,14
3674,00;99,14
3672,00;99,13
3670,00;99,13
3668,00;99,13
3666,00;99,13
3664,00;99,13
3662,00;99,13
3660,00;99,13
3658,00;99,13
3656,00;99,13
3654,00;99,13
3652,00;99,13
3650,00;99,13
3648,00;99,13
3646,00;99,13
3644,00;99,13
3642,00;99,13
3640,00;99,13
3638,00;99,13
3636,00;99,13
3634,00;99,13
3632,00;99,13
3630,00;99,13
3628,00;99,13
3626,00;99,13
3624,00;99,13
3622,00;99,14
3620,00;99,14
3618,00;99,14
3616,00;99,14
3614,00;99,14
3612,00;99,15
3610,00;99,15
3608,00;99,15
3606,00;99,15
3604,00;99,15
3602,00;99,15
3600,00;99,15
3598,00;99,15
3596,00;99,15
3594,00;99,15
3592,00;99,15
3590,00;99,15
3588,00;99,15
3586,00;99,15
3584,00;99,15
3582,00;99,15
3580,00;99,15
3578,00;99,15
3576,00;99,15
3574,00;99,15
3572,00;99,15
3570,00;99,16
3568,00;99,16
3566,00;99,15
3564,00;99,15
3562,00;99,15
3560,00;99,15
3558,00;99,15
3556,00;99,15
3554,00;99,15
3552,00;99,15
3550,00;99,15
3548,00;99,15
3546,00;99,15
3544,00;99,15
3542,00;99,15
3540,00;99,15
3538,00;99,14
3536,00;99,14
3534,00;99,14
3532,00;99,14
3530,00;99,14
3528,00;99,14
3526,00;99,14
3524,00;99,14
3522,00;99,14
3520,00;99,14
3518,00;99,14
3516,00;99,14
3514,00;99,14
3512,00;99,14
3510,00;99,14
3508,00;99,13
3506,00;99,13
3504,00;99,13
3502,00;99,13
3500,00;99,13
3498,00;99,13
3496,00;99,13
3494,00;99,13
3492,00;99,13
3490,00;99,13
3488,00;99,14
3486,00;99,14
3484,00;99,14
3482,00;99,14
3480,00;99,14
3478,00;99,14
3476,00;99,14
3474,00;99,14
3472,00;99,14
3470,00;99,14
3468,00;99,14
3466,00;99,15
3464,00;99,15
3462,00;99,15
3460,00;99,15
3458,00;99,15
3456,00;99,15
3454,00;99,15
3452,00;99,15
3450,00;99,15
3448,00;99,15
3446,00;99,15
3444,00;99,15
3442,00;99,15
3440,00;99,14
3438,00;99,14
3436,00;99,14
3434,00;99,14
3432,00;99,13
3430,00;99,13
3428,00;99,13
3426,00;99,12
3424,00;99,12
3422,00;99,12
3420,00;99,11
3418,00;99,11
3416,00;99,11
3414,00;99,10
3412,00;99,10
3410,00;99,10
3408,00;99,10
3406,00;99,10
3404,00;99,10
3402,00;99,10
3400,00;99,10
3398,00;99,10
3396,00;99,10
3394,00;99,10
3392,00;99,10
3390,00;99,09
3388,00;99,09
3386,00;99,09
3384,00;99,09
3382,00;99,09
3380,00;99,09
3378,00;99,09
3376,00;99,09
3374,00;99,09
3372,00;99,09
3370,00;99,09
3368,00;99,10
3366,00;99,10
3364,00;99,10
3362,00;99,10
3360,00;99,10
3358,00;99,10
3356,00;99,09
3354,00;99,09
3352,00;99,09
3350,00;99,09
3348,00;99,09
3346,00;99,09
3344,00;99,09
3342,00;99,09
3340,00;99,09
3338,00;99,09
3336,00;99,09
3334,00;99,09
3332,00;99,09
3330,00;99,09
3328,00;99,09
3326,00;99,09
3324,00;99,09
3322,00;99,09
3320,00;99,10
3318,00;99,10
3316,00;99,10
3314,00;99,10
3312,00;99,10
3310,00;99,11
3308,00;99,11
3306,00;99,11
3304,00;99,11
3302,00;99,11
3300,00;99,11
3298,00;99,11
3296,00;99,12
3294,00;99,12
3292,00;99,11
3290,00;99,11
3288,00;99,11
3286,00;99,11
3284,00;99,11
3282,00;99,11
3280,00;99,11
3278,00;99,11
3276,00;99,11
3274,00;99,11
3272,00;99,11
3270,00;99,11
3268,00;99,11
3266,00;99,11
3264,00;99,12
3262,00;99,12
3260,00;99,12
3258,00;99,12
3256,00;99,12
3254,00;99,13
3252,00;99,13
3250,00;99,13
3248,00;99,13
3246,00;99,13
3244,00;99,13
3242,00;99,13
3240,00;99,13
3238,00;99,13
3236,00;99,13
3234,00;99,13
3232,00;99,13
3230,00;99,13
3228,00;99,12
3226,00;99,12
3224,00;99,12
3222,00;99,12
3220,00;99,12
3218,00;99,12
3216,00;99,12
3214,00;99,12
3212,00;99,12
3210,00;99,12
3208,00;99,12
3206,00;99,12
3204,00;99,13
3202,00;99,13
3200,00;99,13
3198,00;99,13
3196,00;99,13
3194,00;99,13
3192,00;99,13
3190,00;99,13
3188,00;99,13
3186,00;99,13
3184,00;99,13
3182,00;99,14
3180,00;99,14
3178,00;99,14
3176,00;99,14
3174,00;99,14
3172,00;99,14
3170,00;99,14
3168,00;99,14
3166,00;99,14
3164,00;99,14
3162,00;99,14
3160,00;99,14
3158,00;99,14
3156,00;99,14
3154,00;99,14
3152,00;99,14
3150,00;99,14
3148,00;99,14
3146,00;99,14
3144,00;99,14
3142,00;99,14
3140,00;99,14
3138,00;99,14
3136,00;99,14
3134,00;99,14
3132,00;99,14
3130,00;99,14
3128,00;99,14
3126,00;99,15
3124,00;99,15
3122,00;99,15
3120,00;99,15
3118,00;99,15
3116,00;99,16
3114,00;99,16
3112,00;99,16
3110,00;99,16
3108,00;99,17
3106,00;99,17
3104,00;99,17
3102,00;99,17
3100,00;99,18
3098,00;99,18
3096,00;99,18
3094,00;99,18
3092,00;99,18
3090,00;99,19
3088,00;99,19
3086,00;99,19
3084,00;99,19
3082,00;99,19
3080,00;99,19
3078,00;99,20
3076,00;99,20
3074,00;99,20
3072,00;99,20
3070,00;99,20
3068,00;99,20
3066,00;99,20
3064,00;99,20
3062,00;99,20
3060,00;99,20
3058,00;99,21
3056,00;99,21
3054,00;99,21
3052,00;99,22
3050,00;99,23
3048,00;99,23
3046,00;99,24
3044,00;99,25
3042,00;99,26
3040,00;99,27
3038,00;99,28
3036,00;99,29
3034,00;99,29
3032,00;99,30
3030,00;99,31
3028,00;99,32
3026,00;99,32
3024,00;99,33
3022,00;99,33
3020,00;99,34
3018,00;99,34
3016,00;99,34
3014,00;99,34
3012,00;99,34
3010,00;99,34
3008,00;99,34
3006,00;99,34
3004,00;99,34
3002,00;99,33
3000,00;99,33
2998,00;99,33
2996,00;99,33
2994,00;99,33
2992,00;99,32
2990,00;99,32
2988,00;99,32
2986,00;99,33
2984,00;99,33
2982,00;99,33
2980,00;99,33
2978,00;99,34
2976,00;99,34
2974,00;99,34
2972,00;99,34
2970,00;99,35
2968,00;99,35
2966,00;99,35
2964,00;99,35
2962,00;99,35
2960,00;99,35
2958,00;99,34
2956,00;99,34
2954,00;99,34
2952,00;99,34
2950,00;99,34
2948,00;99,34
2946,00;99,33
2944,00;99,33
2942,00;99,33
2940,00;99,32
2938,00;99,32
2936,00;99,32
2934,00;99,31
2932,00;99,31
2930,00;99,30
2928,00;99,30
2926,00;99,29
2924,00;99,29
2922,00;99,28
2920,00;99,27
2918,00;99,27
2916,00;99,26
2914,00;99,25
2912,00;99,25
2910,00;99,24
2908,00;99,23
2906,00;99,23
2904,00;99,22
2902,00;99,22
2900,00;99,21
2898,00;99,21
2896,00;99,21
2894,00;99,20
2892,00;99,20
2890,00;99,20
2888,00;99,20
2886,00;99,19
2884,00;99,19
2882,00;99,19
2880,00;99,19
2878,00;99,19
2876,00;99,19
2874,00;99,19
2872,00;99,19
2870,00;99,19
2868,00;99,20
2866,00;99,20
2864,00;99,20
2862,00;99,20
2860,00;99,20
2858,00;99,20
2856,00;99,21
2854,00;99,21
2852,00;99,21
2850,00;99,21
2848,00;99,21
2846,00;99,20
2844,00;99,20
2842,00;99,20
2840,00;99,20
2838,00;99,20
2836,00;99,20
2834,00;99,20
2832,00;99,19
2830,00;99,19
2828,00;99,19
2826,00;99,19
2824,00;99,19
2822,00;99,19
2820,00;99,19
2818,00;99,19
2816,00;99,19
2814,00;99,19
2812,00;99,19
2810,00;99,19
2808,00;99,19
2806,00;99,19
2804,00;99,19
2802,00;99,19
2800,00;99,20
2798,00;99,20
2796,00;99,20
2794,00;99,20
2792,00;99,20
2790,00;99,20
2788,00;99,20
2786,00;99,20
2784,00;99,20
2782,00;99,21
2780,00;99,21
2778,00;99,21
2776,00;99,21
2774,00;99,21
2772,00;99,21
2770,00;99,21
2768,00;99,21
2766,00;99,21
2764,00;99,21
2762,00;99,21
2760,00;99,21
2758,00;99,21
2756,00;99,21
2754,00;99,21
2752,00;99,21
2750,00;99,21
2748,00;99,21
2746,00;99,21
2744,00;99,21
2742,00;99,21
2740,00;99,21
2738,00;99,21
2736,00;99,21
2734,00;99,21
2732,00;99,21
2730,00;99,21
2728,00;99,21
2726,00;99,21
2724,00;99,21
2722,00;99,21
2720,00;99,21
2718,00;99,21
2716,00;99,21
2714,00;99,21
2712,00;99,21
2710,00;99,21
2708,00;99,21
2706,00;99,21
2704,00;99,21
2702,00;99,21
2700,00;99,21
2698,00;99,21
2696,00;99,21
2694,00;99,21
2692,00;99,21
2690,00;99,21
2688,00;99,21
2686,00;99,21
2684,00;99,21
2682,00;99,21
2680,00;99,21
2678,00;99,21
2676,00;99,20
2674,00;99,20
2672,00;99,20
2670,00;99,20
2668,00;99,20
2666,00;99,19
2664,00;99,19
2662,00;99,19
2660,00;99,19
2658,00;99,18
2656,00;99,18
2654,00;99,18
2652,00;99,17
2650,00;99,17
2648,00;99,17
2646,00;99,17
2644,00;99,17
2642,00;99,16
2640,00;99,16
2638,00;99,16
2636,00;99,16
2634,00;99,16
2632,00;99,16
2630,00;99,16
2628,00;99,16
2626,00;99,16
2624,00;99,16
2622,00;99,16
2620,00;99,15
2618,00;99,15
2616,00;99,15
2614,00;99,15
2612,00;99,15
2610,00;99,15
2608,00;99,15
2606,00;99,15
2604,00;99,15
2602,00;99,16
2600,00;99,16
2598,00;99,16
2596,00;99,16
2594,00;99,16
2592,00;99,16
2590,00;99,16
2588,00;99,16
2586,00;99,16
2584,00;99,16
2582,00;99,16
2580,00;99,16
2578,00;99,16
2576,00;99,16
2574,00;99,16
2572,00;99,16
2570,00;99,16
2568,00;99,16
2566,00;99,16
2564,00;99,16
2562,00;99,16
2560,00;99,16
2558,00;99,16
2556,00;99,16
2554,00;99,16
2552,00;99,16
2550,00;99,16
2548,00;99,16
2546,00;99,16
2544,00;99,16
2542,00;99,16
2540,00;99,16
2538,00;99,16
2536,00;99,16
2534,00;99,17
2532,00;99,17
2530,00;99,17
2528,00;99,17
2526,00;99,17
2524,00;99,17
2522,00;99,17
2520,00;99,16
2518,00;99,16
2516,00;99,16
2514,00;99,16
2512,00;99,16
2510,00;99,16
2508,00;99,16
2506,00;99,16
2504,00;99,16
2502,00;99,16
2500,00;99,16
2498,00;99,16
2496,00;99,16
2494,00;99,16
2492,00;99,16
2490,00;99,16
2488,00;99,17
2486,00;99,17
2484,00;99,17
2482,00;99,17
2480,00;99,17
2478,00;99,17
2476,00;99,17
2474,00;99,17
2472,00;99,16
2470,00;99,16
2468,00;99,16
2466,00;99,16
2464,00;99,16
2462,00;99,16
2460,00;99,15
2458,00;99,15
2456,00;99,15
2454,00;99,15
2452,00;99,15
2450,00;99,15
2448,00;99,15
2446,00;99,15
2444,00;99,15
2442,00;99,15
2440,00;99,15
2438,00;99,15
2436,00;99,15
2434,00;99,15
2432,00;99,15
2430,00;99,15
2428,00;99,15
2426,00;99,15
2424,00;99,16
2422,00;99,16
2420,00;99,16
2418,00;99,16
2416,00;99,17
2414,00;99,17
2412,00;99,17
2410,00;99,17
2408,00;99,18
2406,00;99,18
2404,00;99,18
2402,00;99,18
2400,00;99,18
2398,00;99,17
2396,00;99,17
2394,00;99,17
2392,00;99,16
2390,00;99,16
2388,00;99,15
2386,00;99,15
2384,00;99,15
2382,00;99,14
2380,00;99,14
2378,00;99,14
2376,00;99,14
2374,00;99,14
2372,00;99,15
2370,00;99,15
2368,00;99,16
2366,00;99,16
2364,00;99,16
2362,00;99,16
2360,00;99,16
2358,00;99,16
2356,00;99,16
2354,00;99,15
2352,00;99,15
2350,00;99,14
2348,00;99,14
2346,00;99,14
2344,00;99,14
2342,00;99,15
2340,00;99,15
2338,00;99,15
2336,00;99,15
2334,00;99,15
2332,00;99,16
2330,00;99,16
2328,00;99,16
2326,00;99,15
2324,00;99,15
2322,00;99,15
2320,00;99,15
2318,00;99,15
2316,00;99,16
2314,00;99,16
2312,00;99,16
2310,00;99,16
2308,00;99,16
2306,00;99,16
2304,00;99,16
2302,00;99,16
2300,00;99,16
2298,00;99,16
2296,00;99,16
2294,00;99,16
2292,00;99,15
2290,00;99,15
2288,00;99,15
2286,00;99,15
2284,00;99,14
2282,00;99,14
2280,00;99,14
2278,00;99,14
2276,00;99,14
2274,00;99,14
2272,00;99,15
2270,00;99,15
2268,00;99,15
2266,00;99,15
2264,00;99,16
2262,00;99,16
2260,00;99,16
2258,00;99,16
2256,00;99,16
2254,00;99,17
2252,00;99,17
2250,00;99,17
2248,00;99,17
2246,00;99,17
2244,00;99,17
2242,00;99,17
2240,00;99,17
2238,00;99,17
2236,00;99,17
2234,00;99,17
2232,00;99,17
2230,00;99,17
2228,00;99,17
2226,00;99,17
2224,00;99,16
2222,00;99,16
2220,00;99,16
2218,00;99,16
2216,00;99,16
2214,00;99,16
2212,00;99,16
2210,00;99,16
2208,00;99,16
2206,00;99,16
2204,00;99,16
2202,00;99,16
2200,00;99,16
2198,00;99,16
2196,00;99,16
2194,00;99,16
2192,00;99,17
2190,00;99,17
2188,00;99,17
2186,00;99,17
2184,00;99,17
2182,00;99,17
2180,00;99,17
2178,00;99,17
2176,00;99,17
2174,00;99,17
2172,00;99,18
2170,00;99,18
2168,00;99,18
2166,00;99,19
2164,00;99,20
2162,00;99,20
2160,00;99,21
2158,00;99,22
2156,00;99,24
2154,00;99,25
2152,00;99,26
2150,00;99,27
2148,00;99,28
2146,00;99,28
2144,00;99,29
2142,00;99,29
2140,00;99,29
2138,00;99,29
2136,00;99,29
2134,00;99,29
2132,00;99,28
2130,00;99,28
2128,00;99,27
2126,00;99,27
2124,00;99,26
2122,00;99,26
2120,00;99,25
2118,00;99,25
2116,00;99,24
2114,00;99,24
2112,00;99,24
2110,00;99,23
2108,00;99,23
2106,00;99,23
2104,00;99,22
2102,00;99,22
2100,00;99,22
2098,00;99,21
2096,00;99,21
2094,00;99,21
2092,00;99,20
2090,00;99,20
2088,00;99,20
2086,00;99,20
2084,00;99,19
2082,00;99,19
2080,00;99,18
2078,00;99,18
2076,00;99,18
2074,00;99,17
2072,00;99,17
2070,00;99,17
2068,00;99,16
2066,00;99,16
2064,00;99,16
2062,00;99,16
2060,00;99,16
2058,00;99,16
2056,00;99,16
2054,00;99,16
2052,00;99,16
2050,00;99,16
2048,00;99,17
2046,00;99,17
2044,00;99,17
2042,00;99,17
2040,00;99,18
2038,00;99,18
2036,00;99,18
2034,00;99,19
2032,00;99,19
2030,00;99,19
2028,00;99,20
2026,00;99,20
2024,00;99,21
2022,00;99,21
2020,00;99,21
2018,00;99,21
2016,00;99,22
2014,00;99,21
2012,00;99,21
2010,00;99,21
2008,00;99,21
2006,00;99,20
2004,00;99,20
2002,00;99,20
2000,00;99,20
1998,00;99,19
1996,00;99,19
1994,00;99,19
1992,00;99,19
1990,00;99,19
1988,00;99,19
1986,00;99,19
1984,00;99,20
1982,00;99,20
1980,00;99,20
1978,00;99,20
1976,00;99,20
1974,00;99,21
1972,00;99,21
1970,00;99,21
1968,00;99,22
1966,00;99,22
1964,00;99,23
1962,00;99,23
1960,00;99,23
1958,00;99,24
1956,00;99,24
1954,00;99,24
1952,00;99,24
1950,00;99,24
1948,00;99,23
1946,00;99,23
1944,00;99,23
1942,00;99,23
1940,00;99,22
1938,00;99,22
1936,00;99,22
1934,00;99,22
1932,00;99,22
1930,00;99,22
1928,00;99,21
1926,00;99,21
1924,00;99,21
1922,00;99,21
1920,00;99,21
1918,00;99,20
1916,00;99,20
1914,00;99,20
1912,00;99,20
1910,00;99,19
1908,00;99,19
1906,00;99,19
1904,00;99,18
1902,00;99,18
1900,00;99,18
1898,00;99,18
1896,00;99,18
1894,00;99,18
1892,00;99,18
1890,00;99,18
1888,00;99,18
1886,00;99,19
1884,00;99,19
1882,00;99,19
1880,00;99,19
1878,00;99,18
1876,00;99,18
1874,00;99,18
1872,00;99,18
1870,00;99,18
1868,00;99,18
1866,00;99,18
1864,00;99,18
1862,00;99,18
1860,00;99,18
1858,00;99,18
1856,00;99,18
1854,00;99,18
1852,00;99,18
1850,00;99,19
1848,00;99,19
1846,00;99,19
1844,00;99,20
1842,00;99,20
1840,00;99,21
1838,00;99,21
1836,00;99,22
1834,00;99,22
1832,00;99,22
1830,00;99,22
1828,00;99,22
1826,00;99,22
1824,00;99,22
1822,00;99,21
1820,00;99,21
1818,00;99,20
1816,00;99,20
1814,00;99,20
1812,00;99,20
1810,00;99,20
1808,00;99,20
1806,00;99,21
1804,00;99,22
1802,00;99,23
1800,00;99,24
1798,00;99,26
1796,00;99,28
1794,00;99,30
1792,00;99,33
1790,00;99,36
1788,00;99,39
1786,00;99,42
1784,00;99,46
1782,00;99,51
1780,00;99,56
1778,00;99,61
1776,00;99,67
1774,00;99,73
1772,00;99,79
1770,00;99,85
1768,00;99,92
1766,00;99,98
1764,00;100,05
1762,00;100,11
1760,00;100,17
1758,00;100,23
1756,00;100,29
1754,00;100,35
1752,00;100,40
1750,00;100,45
1748,00;100,49
1746,00;100,52
1744,00;100,55
1742,00;100,57
1740,00;100,58
1738,00;100,57
1736,00;100,56
1734,00;100,54
1732,00;100,51
1730,00;100,46
1728,00;100,41
1726,00;100,35
1724,00;100,29
1722,00;100,21
1720,00;100,14
1718,00;100,05
1716,00;99,97
1714,00;99,88
1712,00;99,79
1710,00;99,71
1708,00;99,62
1706,00;99,54
1704,00;99,46
1702,00;99,39
1700,00;99,32
1698,00;99,27
1696,00;99,21
1694,00;99,17
1692,00;99,14
1690,00;99,11
1688,00;99,09
1686,00;99,07
1684,00;99,06
1682,00;99,06
1680,00;99,05
1678,00;99,05
1676,00;99,05
1674,00;99,05
1672,00;99,05
1670,00;99,05
1668,00;99,05
1666,00;99,05
1664,00;99,04
1662,00;99,04
1660,00;99,03
1658,00;99,02
1656,00;99,02
1654,00;99,01
1652,00;99,01
1650,00;99,01
1648,00;99,01
1646,00;99,01
1644,00;99,01
1642,00;99,01
1640,00;99,01
1638,00;99,01
1636,00;99,01
1634,00;99,02
1632,00;99,02
1630,00;99,02
1628,00;99,01
1626,00;99,01
1624,00;99,01
1622,00;99,01
1620,00;99,01
1618,00;99,01
1616,00;99,02
1614,00;99,02
1612,00;99,03
1610,00;99,03
1608,00;99,04
1606,00;99,04
1604,00;99,04
1602,00;99,05
1600,00;99,04
1598,00;99,04
1596,00;99,04
1594,00;99,03
1592,00;99,02
1590,00;99,01
1588,00;99,00
1586,00;98,99
1584,00;98,99
1582,00;98,98
1580,00;98,98
1578,00;98,98
1576,00;98,98
1574,00;98,98
1572,00;98,98
1570,00;98,99
1568,00;99,00
1566,00;99,00
1564,00;99,01
1562,00;99,01
1560,00;99,01
1558,00;99,01
1556,00;99,00
1554,00;98,99
1552,00;98,97
1550,00;98,95
1548,00;98,92
1546,00;98,90
1544,00;98,87
1542,00;98,84
1540,00;98,80
1538,00;98,77
1536,00;98,74
1534,00;98,71
1532,00;98,68
1530,00;98,66
1528,00;98,63
1526,00;98,62
1524,00;98,60
1522,00;98,59
1520,00;98,58
1518,00;98,58
1516,00;98,58
1514,00;98,58
1512,00;98,58
1510,00;98,58
1508,00;98,57
1506,00;98,57
1504,00;98,56
1502,00;98,55
1500,00;98,53
1498,00;98,51
1496,00;98,49
1494,00;98,46
1492,00;98,44
1490,00;98,41
1488,00;98,38
1486,00;98,35
1484,00;98,32
1482,00;98,29
1480,00;98,26
1478,00;98,23
1476,00;98,21
1474,00;98,18
1472,00;98,15
1470,00;98,13
1468,00;98,10
1466,00;98,07
1464,00;98,04
1462,00;98,01
1460,00;97,97
1458,00;97,93
1456,00;97,89
1454,00;97,85
1452,00;97,81
1450,00;97,76
1448,00;97,71
1446,00;97,66
1444,00;97,60
1442,00;97,55
1440,00;97,49
1438,00;97,43
1436,00;97,37
1434,00;97,31
1432,00;97,25
1430,00;97,19
1428,00;97,13
1426,00;97,07
1424,00;97,01
1422,00;96,95
1420,00;96,90
1418,00;96,85
1416,00;96,80
1414,00;96,76
1412,00;96,73
1410,00;96,70
1408,00;96,68
1406,00;96,67
1404,00;96,67
1402,00;96,67
1400,00;96,69
1398,00;96,71
1396,00;96,73
1394,00;96,77
1392,00;96,81
1390,00;96,86
1388,00;96,91
1386,00;96,97
1384,00;97,03
1382,00;97,09
1380,00;97,16
1378,00;97,22
1376,00;97,28
1374,00;97,33
1372,00;97,38
1370,00;97,43
1368,00;97,47
1366,00;97,51
1364,00;97,53
1362,00;97,55
1360,00;97,56
1358,00;97,57
1356,00;97,57
1354,00;97,56
1352,00;97,55
1350,00;97,53
1348,00;97,51
1346,00;97,49
1344,00;97,47
1342,00;97,45
1340,00;97,43
1338,00;97,41
1336,00;97,39
1334,00;97,37
1332,00;97,36
1330,00;97,36
1328,00;97,35
1326,00;97,35
1324,00;97,36
1322,00;97,36
1320,00;97,37
1318,00;97,38
1316,00;97,40
1314,00;97,41
1312,00;97,43
1310,00;97,45
1308,00;97,47
1306,00;97,49
1304,00;97,50
1302,00;97,52
1300,00;97,54
1298,00;97,55
1296,00;97,56
1294,00;97,57
1292,00;97,58
1290,00;97,59
1288,00;97,60
1286,00;97,60
1284,00;97,60
1282,00;97,59
1280,00;97,58
1278,00;97,57
1276,00;97,56
1274,00;97,54
1272,00;97,51
1270,00;97,48
1268,00;97,45
1266,00;97,41
1264,00;97,36
1262,00;97,31
1260,00;97,25
1258,00;97,19
1256,00;97,12
1254,00;97,05
1252,00;96,97
1250,00;96,89
1248,00;96,80
1246,00;96,70
1244,00;96,60
1242,00;96,48
1240,00;96,36
1238,00;96,24
1236,00;96,10
1234,00;95,95
1232,00;95,79
1230,00;95,62
1228,00;95,44
1226,00;95,24
1224,00;95,04
1222,00;94,82
1220,00;94,59
1218,00;94,35
1216,00;94,09
1214,00;93,83
1212,00;93,55
1210,00;93,27
1208,00;92,98
1206,00;92,68
1204,00;92,39
1202,00;92,08
1200,00;91,78
1198,00;91,48
1196,00;91,18
1194,00;90,88
1192,00;90,59
1190,00;90,30
1188,00;90,02
1186,00;89,74
1184,00;89,46
1182,00;89,19
1180,00;88,92
1178,00;88,65
1176,00;88,39
1174,00;88,13
1172,00;87,87
1170,00;87,61
1168,00;87,35
1166,00;87,10
1164,00;86,84
1162,00;86,59
1160,00;86,33
1158,00;86,08
1156,00;85,83
1154,00;85,57
1152,00;85,31
1150,00;85,06
1148,00;84,80
1146,00;84,54
1144,00;84,27
1142,00;84,01
1140,00;83,74
1138,00;83,47
1136,00;83,20
1134,00;82,93
1132,00;82,66
1130,00;82,38
1128,00;82,10
1126,00;81,82
1124,00;81,53
1122,00;81,24
1120,00;80,94
1118,00;80,64
1116,00;80,34
1114,00;80,02
1112,00;79,71
1110,00;79,39
1108,00;79,06
1106,00;78,74
1104,00;78,41
1102,00;78,09
1100,00;77,76
1098,00;77,44
1096,00;77,13
1094,00;76,81
1092,00;76,50
1090,00;76,20
1088,00;75,90
1086,00;75,60
1084,00;75,31
1082,00;75,02
1080,00;74,73
1078,00;74,45
1076,00;74,18
1074,00;73,91
1072,00;73,65
1070,00;73,39
1068,00;73,14
1066,00;72,91
1064,00;72,68
1062,00;72,46
1060,00;72,24
1058,00;72,04
1056,00;71,84
1054,00;71,66
1052,00;71,48
1050,00;71,30
1048,00;71,14
1046,00;70,99
1044,00;70,84
1042,00;70,71
1040,00;70,59
1038,00;70,48
1036,00;70,38
1034,00;70,29
1032,00;70,22
1030,00;70,15
1028,00;70,10
1026,00;70,05
1024,00;70,02
1022,00;69,99
1020,00;69,97
1018,00;69,96
1016,00;69,95
1014,00;69,96
1012,00;69,97
1010,00;69,99
1008,00;70,02
1006,00;70,06
1004,00;70,10
1002,00;70,16
1000,00;70,23
998,00;70,31
996,00;70,40
994,00;70,49
992,00;70,60
990,00;70,71
988,00;70,83
986,00;70,96
984,00;71,10
982,00;71,24
980,00;71,39
978,00;71,54
976,00;71,70
974,00;71,87
972,00;72,04
970,00;72,22
968,00;72,41
966,00;72,60
964,00;72,79
962,00;72,99
960,00;73,19
958,00;73,40
956,00;73,60
954,00;73,80
952,00;74,01
950,00;74,21
948,00;74,41
946,00;74,62
944,00;74,83
942,00;75,04
940,00;75,25
938,00;75,46
936,00;75,68
934,00;75,90
932,00;76,12
930,00;76,35
928,00;76,59
926,00;76,83
924,00;77,08
922,00;77,33
920,00;77,59
918,00;77,85
916,00;78,12
914,00;78,40
912,00;78,68
910,00;78,97
908,00;79,27
906,00;79,58
904,00;79,89
902,00;80,21
900,00;80,54
898,00;80,88
896,00;81,21
894,00;81,56
892,00;81,91
890,00;82,26
888,00;82,61
886,00;82,97
884,00;83,33
882,00;83,69
880,00;84,05
878,00;84,41
876,00;84,76
874,00;85,12
872,00;85,46
870,00;85,81
868,00;86,14
866,00;86,46
864,00;86,76
862,00;87,06
860,00;87,33
858,00;87,59
856,00;87,83
854,00;88,04
852,00;88,24
850,00;88,41
848,00;88,56
846,00;88,68
844,00;88,78
842,00;88,86
840,00;88,91
838,00;88,93
836,00;88,92
834,00;88,89
832,00;88,83
830,00;88,75
828,00;88,65
826,00;88,52
824,00;88,38
822,00;88,22
820,00;88,05
818,00;87,88
816,00;87,69
814,00;87,51
812,00;87,33
810,00;87,16
808,00;86,99
806,00;86,83
804,00;86,68
802,00;86,55
800,00;86,42
798,00;86,31
796,00;86,22
794,00;86,14
792,00;86,07
790,00;86,02
788,00;85,99
786,00;85,97
784,00;85,96
782,00;85,98
780,00;86,00
778,00;86,04
776,00;86,10
774,00;86,16
772,00;86,23
770,00;86,31
768,00;86,40
766,00;86,49
764,00;86,58
762,00;86,68
760,00;86,77
758,00;86,87
756,00;86,96
754,00;87,04
752,00;87,13
750,00;87,21
748,00;87,28
746,00;87,35
744,00;87,42
742,00;87,48
740,00;87,53
738,00;87,58
736,00;87,62
734,00;87,66
732,00;87,69
730,00;87,72
728,00;87,74
726,00;87,76
724,00;87,77
722,00;87,77
720,00;87,78
718,00;87,77
716,00;87,77
714,00;87,77
712,00;87,76
710,00;87,75
708,00;87,74
706,00;87,74
704,00;87,73
702,00;87,72
700,00;87,71
698,00;87,71
696,00;87,70
694,00;87,70
692,00;87,70
690,00;87,70
688,00;87,70
686,00;87,71
684,00;87,73
682,00;87,75
680,00;87,77
678,00;87,81
676,00;87,85
674,00;87,89
672,00;87,94
670,00;88,00
668,00;88,07
666,00;88,13
664,00;88,20
662,00;88,27
660,00;88,34
658,00;88,41
656,00;88,48
654,00;88,55
652,00;88,61
650,00;88,67
648,00;88,73
646,00;88,79
644,00;88,84
642,00;88,89
640,00;88,93
638,00;88,97
636,00;89,01
634,00;89,04
632,00;89,07
630,00;89,08
628,00;89,10
626,00;89,10
624,00;89,10
622,00;89,08
620,00;89,07
618,00;89,04
616,00;89,01
614,00;88,98
612,00;88,94
610,00;88,88
608,00;88,82
606,00;88,75
604,00;88,68
602,00;88,60
600,00;88,52
